Time_Seconds,Voltage_mV
0.0,0.22989300390251177
0.002000918203292494,0.22989300390251177
0.004001836406584988,0.22989300390251177
0.006002754609877482,0.22989300390251177
0.008003672813169976,0.22989300390251177
0.01000459101646247,0.22989300390251177
0.012005509219754964,0.22989300390251177
0.014006427423047457,0.22989300390251177
0.01600734562633995,0.22989300390251177
0.018008263829632446,0.22989300390251177
0.02000918203292494,0.22989300390251177
0.022010100236217432,0.22989300390251177
0.024011018439509927,0.22989300390251177
0.026011936642802422,0.22989300390251177
0.028012854846094913,0.22989300390251177
0.030013773049387408,0.22989300390251177
0.0320146912526799,0.22989300390251177
0.034015609455972394,0.22989300390251177
0.03601652765926489,0.22989300390251177
0.038017445862557384,0.22989300390251177
0.04001836406584988,0.22989300390251177
0.04201928226914237,0.22989300390251177
0.044020200472434864,0.22989300390251177
0.04602111867572736,0.22989300390251177
0.048022036879019854,0.22989300390251177
0.050022955082312345,0.22989300390251177
0.052023873285604844,0.22989300390251177
0.054024791488897335,0.22989300390251177
0.056025709692189826,0.22989300390251177
0.058026627895482324,0.22989300390251177
0.060027546098774816,0.22989300390251177
0.062028464302067314,0.22989300390251177
0.0640293825053598,0.22989300390251177
0.0660303007086523,0.22989300390251177
0.06803121891194479,0.22989300390251177
0.07003213711523729,0.22989300390251177
0.07203305531852978,0.22989300390251177
0.07403397352182227,0.22989300390251177
0.07603489172511477,0.22989300390251177
0.07803580992840727,0.22989300390251177
0.08003672813169976,0.22989300390251177
0.08203764633499225,0.22989300390251177
0.08403856453828475,0.22989300390251177
0.08603948274157724,0.22989300390251177
0.08804040094486973,0.22989300390251177
0.09004131914816223,0.22989300390251177
0.09204223735145473,0.22989300390251177
0.09404315555474721,0.22989300390251177
0.09604407375803971,0.22989300390251177
0.0980449919613322,0.22989300390251177
0.10004591016462469,0.22989300390251177
0.10204682836791719,0.22989300390251177
0.10404774657120969,0.22989300390251177
0.10604866477450217,0.4303055142105294
0.10804958297779467,0.8079788250819884
0.11005050118108717,0.8649352379534347
0.11205141938437965,0.8606609321050351
0.11405233758767215,0.8606609321050351
0.11605325579096465,0.8583950350287752
0.11805417399425715,0.8533927395205438
0.12005509219754963,0.8521942485050014
0.12205601040084213,0.8518548321041153
0.12405692860413463,0.8468525365958839
0.12605784680742713,0.8456048887222818
0.1280587650107196,0.8506071842305132
0.1300596832140121,0.8795160983749475
0.1320606014173046,0.9195344624407973
0.1340615196205971,0.919927717305272
0.13606243782388958,0.9214164678636414
0.1380633560271821,0.9264187633718723
0.14006427423047457,0.9253677429305078
0.14206519243376706,0.9203654474222769
0.14406611063705957,0.8879757595666868
0.14606702884035205,0.8617611094044588
0.14806794704364454,0.8667634049126902
0.15006886524693705,0.8664895309892167
0.15206978345022953,0.8614872354809853
0.15407070165352202,0.8606609321050351
0.15607161985681453,0.8599493280645567
0.15807253806010702,0.8549470325563258
0.16007345626339953,0.8521942485050014
0.162074374466692,0.8521942485050014
0.1640752926699845,0.8484068296316658
0.166076210873277,0.843404534123434
0.1680771290765695,0.838402238615203
0.17007804727986198,0.8538702632845494
0.1720789654831545,0.903893218366862
0.17407988368644697,0.919927717305272
0.17608080188973946,0.919927717305272
0.17808172009303197,0.9149909642744531
0.18008263829632445,0.9114610337052382
0.18208355649961694,0.9114610337052382
0.18408447470290945,0.9144713060606828
0.18608539290620194,0.9194736015689142
0.18808631110949442,0.9153795375333988
0.19008722931278693,0.912544825385309
0.19208814751607942,0.91754712089354
0.1940890657193719,0.9225494164017713
0.1960899839226644,0.9275517119100023
0.1980909021259569,0.9242347943923779
0.20009182032924938,0.9192324988841469
0.2020927385325419,0.9142302033759155
0.20409365673583438,0.9963198155322859
0.20609457493912686,1.186407044845073
0.20809549314241937,1.236966043760508
0.21009641134571186,1.241661694106559
0.21209732954900434,1.241661694106559
0.21409824775229686,1.2398171415279506
0.21609916595558934,1.2348148460197192
0.21810008415888182,1.2365774705015622
0.22010100236217434,1.2415797660097936
0.22210192056546682,1.241661694106559
0.2241028387687593,1.2134156953050965
0.22610375697205182,1.1163711624454096
0.2281046751753443,1.019326629585724
0.2301055933786368,0.9222820967260374
0.2321065115819293,0.8252375638663518
0.23410742978522178,0.7281930310066662
0.2361083479885143,0.6311484981469797
0.23810926619180678,0.5341039652872941
0.24011018439509926,0.43705943242760803
0.24211110259839178,0.3400148995679215
0.24411202080168426,0.24297036670823635
0.24611293900497674,0.14592583384855073
0.24811385720826926,0.048881300988863785
0.25011477541156174,-0.0481632318708205
0.25211569361485425,-0.14520776473050723
0.2541166118181467,-0.24225229759019173
0.2561175300214392,-0.3392968304498791
0.25811844822473173,-0.4045312582185221
0.2601193664280242,-0.41453584923498443
0.2621202846313167,-0.42117436587576296
0.2641212028346092,-0.4261766613839941
0.26612212103790167,-0.4213709933080003
0.2681230392411942,-0.4163686977997689
0.2701239574444867,-0.41136640229153754
0.27212487564777915,-0.4093416079000449
0.27412579385107166,-0.4093416079000449
0.2761267120543642,-0.4093416079000449
0.27812763025765663,-0.41039262834140944
0.28012854846094914,-0.41539492384964083
0.28212946666424166,-0.420397219357872
0.2841303848675341,-0.42539951486610317
0.2861313030708266,-0.42214813982589106
0.28813222127411914,-0.4178082915000789
0.2901331394774116,-0.4178082915000789
0.2921340576807041,-0.4178082915000789
0.2941349758839966,-0.4178082915000789
0.2961358940872891,-0.41407002948480254
0.2981368122905816,-0.4096154818235187
0.3001377304938741,-0.41461777733174987
0.30213864869716656,-0.6714576790863918
0.30413956690045907,-1.3717790502387626
0.3061404851037516,-0.36040946690607
0.30814140330704404,1.4954421666476914
0.31014232151033655,1.5379956201077443
0.31214323971362906,1.5379956201077443
0.3141441579169215,1.5379956201077443
0.31614507612021403,1.5409567356051297
0.31814599432350654,1.5459590311133606
0.32014691252679905,1.4940389062772486
0.3221478307300915,1.435751289050903
0.324148748933384,1.3774636718245556
0.32614966713667654,1.3191760545982092
0.328150585339969,1.260888437371864
0.3301515035432615,1.2026008201455172
0.332152421746554,1.1443132029191698
0.3341533399498465,1.0860255856928238
0.336154258153139,1.0277379684664765
0.3381551763564315,0.9694503512401291
0.34015609455972395,0.911162734013784
0.34215701276301647,0.8528751167874375
0.344157930966309,0.7945874995610906
0.34615884916960143,0.7362998823347451
0.34815976737289395,0.6780122651083973
0.35016068557618646,0.61972464788205
0.3521616037794789,0.5614370306557044
0.3541625219827714,0.5031494134293579
0.35616344018606394,0.4448617962030115
0.3581643583893564,0.38657417897666546
0.3601652765926489,0.3282865617503181
0.3621661947959414,0.2699989445239708
0.3641671129992339,0.2117113272976252
0.3661680312025264,0.15342371007127786
0.3681689494058189,0.09513609284493141
0.37016986760911136,0.036848475618586285
0.37217078581240387,-0.02143914160776106
0.3741717040156964,-0.0797267588341084
0.37617262221898884,-0.13801437606045397
0.37817354042228135,-0.19630199328680042
0.38017445862557386,-0.2545896105131471
0.3821753768288663,-0.3128772277394929
0.38417629503215883,-0.37116484496584023
0.38617721323545134,-0.4294524621921876
0.3881781314387438,-0.48774007941853337
0.3901790496420363,-0.5460276966448805
0.3921799678453288,-0.6043153138712265
0.3941808860486213,-0.6626029310975718
0.3961818042519138,-0.7208905483239192
0.3981827224552063,-0.7177540761672447
0.40018364065849876,-0.7141422175012642
0.4021845588617913,-0.7141422175012642
0.4041854770650838,-0.7170705617599433
0.40618639526837624,-0.7220728572681745
0.40818731347166876,-0.7226089011012979
0.41018823167496127,-0.7236107646846031
0.4121891498782537,-0.7286130601928344
0.41419006808154624,-0.7310755847013319
0.41619098628483875,-0.7310755847013319
0.4181919044881312,-0.7310755847013319
0.4201928226914237,-0.7310755847013319
0.42219374089471623,-0.7310755847013319
0.4241946590980087,-0.7289243869605435
0.4261955773013012,-0.7239220914523121
0.4281964955045937,-0.7226089011012979
0.43019741370788617,-0.7223841840358836
0.4321983319111787,-0.7173818885276524
0.4341992501144712,-0.7159048419831071
0.43620016831776365,-0.7209071374913383
0.43820108652105616,-0.7226089011012979
0.44020200472434867,-0.7226089011012979
0.44220292292764113,-0.7226089011012979
0.44420384113093364,-0.7638304377882204
0.44620475933422615,-0.9138993030351596
0.4482056775375186,-0.9824333263809661
0.4502065957408111,-0.9924379173974287
0.45220751394410363,-0.9890929102466269
0.45420843214739615,-0.9872660437333527
0.4562093503506886,-0.9983822559738663
0.4582102685539811,-1.0094984682143804
0.4602111867572736,-1.0206146804548943
0.4622121049605661,-1.0317308926954079
0.4642130231638586,-1.0428471049359218
0.4662139413671511,-1.0539633171764358
0.46821485957044356,-1.0650795294169495
0.4702157777737361,-1.0761957416574632
0.4722166959770286,-1.0873119538979772
0.47421761418032105,-1.098428166138491
0.47621853238361356,-1.109544378379005
0.47821945058690607,-1.120660590619519
0.4802203687901985,-1.1317768028600326
0.48222128699349104,-1.1428930151005465
0.48422220519678355,-1.1540092273410605
0.486223123400076,-1.1495877110076784
0.4882240416033685,-1.1459430811029914
0.49022495980666103,-1.1459430811029914
0.4922258780099535,-1.1430475080830185
0.494226796213246,-1.138045212574787
0.4962277144165385,-1.1330429170665557
0.49822863261983097,-1.1290097139029236
0.5002295508231235,-1.1290097139029236
0.502230469026416,-1.1265027141418962
0.5042313872297085,-1.1215004186336648
0.5062323054330009,-1.1205430303028898
0.5082332236362934,-1.1205430303028898
0.5102341418395859,-1.1205430303028898
0.5122350600428784,-1.1205430303028898
0.514235978246171,-1.1205430303028898
0.5162368964494635,-1.116886696384379
0.518237814652756,-1.1120763467028558
0.5202387328560484,-1.1120763467028558
0.5222396510593409,-1.1120763467028558
0.5242405692626334,-1.1120763467028558
0.5262414874659259,-1.1120763467028558
0.5282424056692184,-1.1120763467028558
0.5302433238725109,-1.1120763467028558
0.5322442420758033,-1.0409885075407277
0.5342451602790959,-0.7758668456044688
0.5362460784823884,-0.6575837410998213
0.5382469966856809,-0.6475791500833588
0.5402479148889734,-0.6287403694327989
0.5422488330922659,-0.6125420143008578
0.5442497512955583,-0.6125420143008578
0.5462506694988508,-0.6209824288920878
0.5482515877021433,-0.6379346525588718
0.5502525059054358,-0.6548868762256557
0.5522534241087284,-0.6718390998924395
0.5542543423120209,-0.6887913235592227
0.5562552605153133,-0.7057435472260052
0.5582561787186058,-0.722695770892789
0.5602570969218983,-0.7396479945595729
0.5622580151251908,-0.7566002182263569
0.5642589333284833,-0.7735524418931408
0.5662598515317758,-0.7905046655599246
0.5682607697350682,-0.8074568892267076
0.5702616879383607,-0.8244091128934914
0.5722626061416533,-0.8413613365602752
0.5742635243449458,-0.8583135602270591
0.5762644425482383,-0.8752657838938429
0.5782653607515308,-0.8922180075606261
0.5802662789548232,-0.9091702312274086
0.5822671971581157,-0.9261224548941924
0.5842681153614082,-0.9430746785609763
0.5862690335647007,-0.9600269022277601
0.5882699517679932,-0.9769791258945442
0.5902708699712857,-0.993931349561328
0.5922717881745782,-1.010883573228111
0.5942727063778707,-1.0278357968948948
0.5962736245811632,-1.0447880205616786
0.5982745427844557,-1.0617402442284625
0.6002754609877482,-1.0786924678952463
0.6022763791910407,-1.0956446915620304
0.6042772973943331,-1.1125969152288127
0.6062782155976256,-1.128850539314922
0.6082791338009181,-1.1238482438066906
0.6102800520042106,-1.1188459482984594
0.6122809702075032,-1.1138436527902282
0.6142818884107957,-1.1120763467028558
0.6162828066140881,-1.1120763467028558
0.6182837248173806,-1.1168492435401436
0.6202846430206731,-1.1205430303028898
0.6222855612239656,-1.1205430303028898
0.6242864794272581,-1.1205430303028898
0.6262873976305506,-1.1205430303028898
0.628288315833843,-1.1249273538812319
0.6302892340371355,-1.1290097139029236
0.6322901522404281,-1.1290097139029236
0.6342910704437206,-1.1290097139029236
0.6362919886470131,-1.1290097139029236
0.6382929068503056,-1.1250139635835268
0.6402938250535981,-1.1205430303028898
0.6422947432568905,-1.1205430303028898
0.644295661460183,-1.1226122999469126
0.6462965796634755,-1.1276145954551438
0.648297497866768,-1.1290097139029236
0.6502984160700606,-1.0928841048347406
0.6522993342733531,0.17269665874777873
0.6543002524766455,1.0130612369056449
0.656301170679938,1.0130612369056449
0.6583020888832305,1.0130612369056449
0.660303007086523,1.0130612369056449
0.6623039252898155,1.0130612369056449
0.664304843493108,1.0130612369056449
0.6663057616964004,1.0130612369056449
0.668306679899693,1.0158912674482052
0.6703075981029855,1.0208935629564366
0.672308516306278,1.0171599825466893
0.6743094345095705,1.0130612369056449
0.676310352712863,1.0130612369056449
0.6783112709161554,1.0130612369056449
0.6803121891194479,1.0130612369056449
0.6823131073227404,1.0130612369056449
0.6843140255260329,1.0135762135138857
0.6863149437293254,1.018578509022117
0.688315861932618,1.0215279205056786
0.6903167801359104,1.0215279205056786
0.6923176983392029,1.0215279205056786
0.6943186165424954,1.0215279205056786
0.6963195347457879,1.0215279205056786
0.6983204529490804,1.0215279205056786
0.7003213711523729,1.0215279205056786
0.7023222893556653,1.0215279205056786
0.7043232075589578,1.0215279205056786
0.7063241257622503,-0.11136209755528137
0.7083250439655429,-1.000733722395637
0.7103259621688354,-0.9957314268874056
0.7123268803721279,-0.9963564212255892
0.7143277985754203,-1.0013587167338203
0.7163287167787128,-0.6872471740020836
0.7183296349820053,-0.32541446557335285
0.7203305531852978,0.03641824285537787
0.7223314713885903,0.3982509512841088
0.7243323895918828,0.7600836597128398
0.7263333077951752,0.8352608813049334
0.7283342259984678,0.8357594722938213
0.7303351442017603,0.8407617678020527
0.7323360624050528,0.8416910664996506
0.7343369806083453,0.8366887709914193
0.7363378988116378,0.8352608813049334
0.7383388170149302,0.8353708990348756
0.7403397352182227,0.840373194543107
0.7423406534215152,0.8387837894658539
0.7443415716248077,0.8237769029411601
0.7463424898281003,0.08240019209810745
0.7483434080313928,-1.0731300703033233
0.7503443262346852,-1.1327526575237292
0.7523452444379777,-1.1252316582406463
0.7543461626412702,-1.1102247717159526
0.7563470808445627,-1.1008124037989677
0.7583479990478552,-1.0958101082907366
0.7603489172511477,-1.0908078127825052
0.7623498354544401,-1.0858055172742742
0.7643507536577326,-1.0808032217660428
0.7663516718610252,-1.0758009262578117
0.7683525900643177,-1.0707986307495805
0.7703535082676102,-1.065796335241349
0.7723544264709027,-1.0612762451026527
0.7743553446741952,-1.0612762451026527
0.7763562628774876,-1.0612762451026527
0.7783571810807801,-1.0612762451026527
0.7803580992840726,-1.0648342653050449
0.7823590174873651,-1.0698365608132763
0.7843599356906577,-1.0748388563215072
0.7863608538939502,-1.0782096123027203
0.7883617720972426,-1.0782096123027203
0.7903626903005351,-1.0750401653592738
0.7923636085038276,-1.0700378698510427
0.7943645267071201,-1.0650355743428115
0.7963654449104126,-1.0712199752472342
0.7983663631137051,-1.1112383393130845
0.8003672813169975,-1.137352334956427
0.80236819952029,-1.1523592214811211
0.8043691177235825,-1.1544097647030251
0.8063700359268751,-1.1544097647030251
0.8083709541301676,-1.1544097647030251
0.8103718723334601,-1.1496251638519137
0.8123727905367525,-1.1396205728354516
0.814373708740045,-1.1531972288708945
0.8163746269433375,-1.1447914061427376
0.81837554514663,-0.8596605621735534
0.8203764633499225,-0.2960116420455221
0.822377381553215,0.6844382775678128
0.8243782997565074,0.9707278189054751
0.8263792179598,0.9707278189054751
0.8283801361630925,0.9707278189054751
0.830381054366385,0.9707278189054751
0.8323819725696775,0.9707278189054751
0.83438289077297,1.1031563945174097
0.8363838089762624,1.3132528058631059
0.8383847271795549,1.3263285301068977
0.8403856453828474,1.3263285301068977
0.84238656358614,1.3263285301068977
0.8443874817894325,1.3263285301068977
0.846388399992725,1.3263285301068977
0.8483893181960174,1.3478405075147806
0.8503902363993099,1.372851985055937
0.8523911546026024,1.3978634625970936
0.8543920728058949,1.42287494013825
0.8563929910091874,1.4478864176794066
0.8583939092124799,1.4728978952205631
0.8603948274157723,1.4979093727617183
0.8623957456190648,1.522920850302874
0.8643966638223574,1.54793232784403
0.8663975820256499,1.5729438053851865
0.8683985002289424,1.597955282926343
0.8703994184322349,1.6229667604674995
0.8724003366355273,1.6479782380086543
0.8744012548388198,1.6729897155498108
0.8764021730421123,1.6980011930909673
0.8784030912454048,1.7230126706321238
0.8804040094486973,1.7480241481732803
0.8824049276519899,1.7730356257144368
0.8844058458552823,1.7919961281087602
0.8864067640585748,1.7919961281087602
0.8884076822618673,1.7892480256629653
0.8904086004651598,1.7842457301547343
0.8924095186684523,1.78781545437095
0.8944104368717448,1.7919961281087602
0.8964113550750372,1.7919961281087602
0.8984122732783297,1.7943556572956099
0.9004131914816222,1.7993579528038413
0.9024141096849148,1.7965653751055162
0.9044150278882073,1.7919961281087602
0.9064159460914998,1.7919961281087602
0.9084168642947923,1.7919961281087602
0.9104177824980847,1.7919961281087602
0.9124187007013772,1.7919961281087602
0.9144196189046697,1.7919961281087602
0.9164205371079622,1.7919961281087602
0.9184214553112547,1.793578510777719
0.9204223735145473,1.7985808062859503
0.9224232917178397,1.8004628117087944
0.9244242099211322,1.8004628117087944
0.9264251281244247,1.7958046142069781
0.9284260463277172,1.7919961281087602
0.9304269645310097,1.7919961281087602
0.9324278827343022,1.7892644112823182
0.9344288009375946,1.7842621157740872
0.9364297191408871,1.7877990687515966
0.9384306373441796,1.7855542389002186
0.9404315555474722,1.7455358748343683
0.9424324737507647,1.7219195157409932
0.9444333919540572,1.7169172202327618
0.9464343101573496,1.7196770266923807
0.9484352283606421,1.7242626593084895
0.9504361465639346,1.7242626593084895
0.9524370647672271,1.7262172296170406
0.9544379829705196,1.731219525125272
0.9564389011738121,1.7292368651835437
0.9584398193771045,1.7242907489416663
0.960440737580397,1.7292930444498977
0.9624416557836896,1.6591274815770576
0.9644425739869821,1.4240195926901942
0.9664434921902746,1.3316913092408975
0.9684444103935671,1.3266890137326661
0.9704453285968595,1.3263285301068977
0.972446246800152,1.3263285301068977
0.9744471650034445,1.3263285301068977
0.976448083206737,1.323613198899809
0.9784490014100296,1.3186109033915776
0.9804499196133221,0.6033177577559194
0.9824508378166145,-0.1053298488305403
0.984451756019907,-0.1103321443387717
0.9864526742231995,-0.3991989095205002
0.988453592426492,-1.0144812570329502
0.9904545106297845,-1.1544097647030251
0.992455428833077,-1.154009487430256
0.9944563470363694,-1.149007191922025
0.9964572652396619,-1.1459430811029914
0.9984581834429545,-1.1459430811029914
1.000459101646247,-1.1459430811029914
1.0024600198495395,-1.1459430811029914
1.004460938052832,-1.1459430811029914
1.0064618562561245,-1.1459430811029914
1.008462774459417,-1.1459430811029914
1.0104636926627095,-1.1459430811029914
1.0124646108660018,-1.1459430811029914
1.0144655290692943,-1.1459430811029914
1.0164664472725868,-1.1447820429316846
1.0184673654758793,-1.1397797474234532
1.0204682836791719,-1.1347774519152218
1.0224692018824644,-1.1297751564069907
1.0244701200857569,-1.1247728608987593
1.0264710382890494,-1.1205430303028898
1.028471956492342,-1.1205430303028898
1.0304728746956344,-1.1182326579740995
1.032473792898927,-1.1132303624658684
1.0344747111022194,-1.1120763467028558
1.036475629305512,-1.1124602383562725
1.0384765475088042,-1.117462533864503
1.0404774657120968,-1.1224648293727344
1.0424783839153893,-1.1274671248809658
1.0444793021186818,-1.132469420389197
1.0464802203219743,-1.1374717158974281
1.0484811385252668,-1.1424740114056595
1.0504820567285593,-1.1459430811029914
1.0524829749318518,-1.1459430811029914
1.0544838931351443,-1.1459430811029914
1.0564848113384369,-1.1459430811029914
1.0584857295417294,-1.1413340404592347
1.0604866477450219,-1.1409103551588202
1.0624875659483142,-1.155917241683512
1.0644884841516067,-1.1655590082714413
1.0664894023548992,-1.170561303779673
1.0684903205581917,-1.175563599287904
1.0704912387614842,-1.179809815503127
1.0724921569647767,-1.179809815503127
1.0744930751680692,-1.179809815503127
1.0764939933713618,-1.179809815503127
1.0784949115746543,-1.179809815503127
1.0804958297779468,-1.179809815503127
1.0824967479812393,-1.179809815503127
1.0844976661845318,-1.179809815503127
1.086498584387824,-1.179809815503127
1.0884995025911166,-1.0145304138909657
1.0905004207944091,-0.7744202294958553
1.0925013389977016,-0.77839023098485
1.0945022572009941,-0.7621567638114353
1.0965031754042867,-0.6971269222044263
1.0985040936075792,-0.6748635471090698
1.1005050118108717,-0.679865842617301
1.1025059300141642,-0.6756828280767249
1.1045068482174567,-0.3931268671485908
1.1065077664207492,0.8424401233844998
1.1085086846240417,1.4327929214524184
1.110509602827334,1.4578043989935714
1.1125105210306265,1.3260636849940886
1.114511439233919,1.1645610014426175
1.1165123574372116,1.003058317891155
1.118513275640504,0.8415556343396875
1.1205141938437966,0.6800529507882143
1.122515112047089,0.5185502672367495
1.1245160302503816,0.3570475836852869
1.1265169484536741,0.19554490013381365
1.1285178666569666,0.03404221658234441
1.1305187848602591,-0.12746046696911817
1.1325197030635517,-0.2889631505205805
1.134520621266844,-0.4504658340720249
1.1365215394701365,-0.4467101832362188
1.138522457673429,-0.4417078877279874
1.1405233758767215,-0.43670559221975624
1.142524294080014,-0.43474165870014647
1.1445252122833065,-0.43474165870014647
1.146526130486599,-0.43474165870014647
1.1485270486898915,-0.4336297773868987
1.150527966893184,-0.4286274818786673
1.1525288850964766,-0.4289247638297893
1.154529803299769,-0.43392705933802045
1.1565307215030616,-0.4389293548462516
1.158531639706354,-0.4439316503544828
1.1605325579096464,-0.44893394586271373
1.162533476112939,-0.45167502590021424
1.1645343943162314,-0.45167502590021424
1.166535312519524,-0.45167502590021424
1.1685362307228164,-0.4590391913980669
1.170537148926109,-0.569089692579152
1.1725380671294015,-0.6379420651009593
1.174538985332694,-0.6379420651009593
1.1765399035359865,-0.6379420651009593
1.178540821739279,-0.6379420651009593
1.1805417399425715,-0.6379420651009593
1.182542658145864,-0.6379420651009593
1.1845435763491563,-0.6379420651009593
1.1865444945524488,-0.680249734270717
1.1885454127557413,-0.7502818713859529
1.1905463309590338,-0.7564756355014335
1.1925472491623264,-0.8397333082374256
1.1945481673656189,-1.2199077668629923
1.1965490855689114,-1.4025769922143305
1.1985500037722039,-1.4075792877225621
1.2005509219754964,-1.4084102727040413
1.202551840178789,-1.4105310400088893
1.2045527583820814,-1.4255379265335835
1.206553676585374,-1.4405448130582776
1.2085545947886662,-1.4555516995829694
1.2105555129919587,-1.4629931115720507
1.2125564311952512,-1.4676770579042784
1.2145573493985438,-1.4676770579042784
1.2165582676018363,-1.4695333144967107
1.2185591858051288,-1.4745356100049418
1.2205601040084213,-1.479537905513173
1.2225610222117138,-1.4845402010214046
1.2245619404150063,-1.2922596395180477
1.2265628586182988,-1.1529420813695381
1.2285637768215913,-1.1479397858613067
1.2305646950248839,-1.1399318996031593
1.2325656132281761,-1.1299273085866983
1.2345665314314687,-1.119922717570236
1.2365674496347612,-0.8250330668749153
1.2385683678380537,0.5055775383146544
1.2405692860413462,1.1400614909061528
1.2425702042446387,1.1400614909061528
1.2445711224479312,1.1400614909061528
1.2465720406512237,1.1400614909061528
1.2485729588545162,1.1400614909061528
1.2505738770578088,1.1422899351381774
1.2525747952611013,1.1472922306464088
1.2545757134643938,0.1466786360175214
1.256576631667686,-1.1057234079993745
1.2585775498709786,-1.1407394765569925
1.260578468074271,-1.1683960612222957
1.2625793862775636,-1.18340294774699
1.2645803044808561,-1.1916542774926684
1.2665812226841486,-1.1966565730008996
1.2685821408874411,-1.201658868509131
1.2705830590907337,-1.2052098663032285
1.2725839772940262,-1.2052098663032285
1.2745848954973187,-1.2052098663032285
1.2765858137006112,-1.2052098663032285
1.2785867319039037,-1.2052098663032285
1.2805876501071962,-1.2052098663032285
1.2825885683104885,-1.2052098663032285
1.284589486513781,-1.1505965969992715
1.2865904047170735,-1.0455483913264176
1.288591322920366,-1.0274095107025172
1.2905922411236586,-1.0280836618987599
1.292593159326951,-1.0330859574069913
1.2945940775302436,-1.0336641356898795
1.296594995733536,-1.0286618401816483
1.2985959139368286,-1.023659544673417
1.3005968321401211,-1.0186572491651855
1.3025977503434136,-1.0136549536569543
1.3045986685467061,-1.0104761435024496
1.3065995867499984,-1.0104761435024496
1.308600504953291,-1.0104761435024496
1.3106014231565835,-1.0104761435024496
1.312602341359876,0.37602580930056906
1.3146032595631685,1.385595315307135
1.316604177766461,1.385595315307135
1.3186050959697535,1.3885681348183443
1.320606014173046,1.3935704303265752
1.3226069323763385,1.3940619989071688
1.324607850579631,1.3940619989071688
1.3266087687829236,1.3940619989071688
1.328609686986216,1.3940619989071688
1.3306106051895084,1.3940619989071688
1.3326115233928009,1.3899398452384766
1.3346124415960934,1.3635601684813312
1.336613359799386,1.195983268955588
1.3386142780026784,1.0284063694298404
1.340615196205971,0.8608294699040862
1.3426161144092634,0.6932525703783403
1.344617032612556,0.5256756708525963
1.3466179508158485,0.3580987713268424
1.348618869019141,0.24925261316822356
1.3506197872224335,0.24425031765999217
1.352620705425726,0.24593803645336454
1.3546216236290183,0.2509403319615955
1.3566225418323108,0.2559426274698269
1.3586234600356033,0.25810787002720303
1.3606243782388958,0.25310557451897164
1.3626252964421883,0.25105971290259665
1.3646262146454808,0.25105971290259665
1.3666271328487734,0.25105971290259665
1.3686280510520659,0.2500297596861145
1.3706289692553584,0.24502746417788313
1.3726298874586509,0.24259302930256288
1.3746308056619434,0.24259302930256288
1.376631723865236,0.23848726125322317
1.3786326420685282,0.2341263457025291
1.3806335602718207,0.2341263457025291
1.3826344784751132,0.08811409164686124
1.3846353966784057,-0.24703970740464687
1.3866363148816983,-0.582193506456139
1.3886372330849908,-0.9173473055076251
1.3906381512882833,-1.2525011045591115
1.3926390694915758,-1.4658863437892586
1.3946399876948683,-1.460884048281027
1.3966409058981608,-1.4592103743042446
1.3986418241014533,-1.4592103743042446
1.4006427423047458,-1.464076903252122
1.4026436605080381,-1.466274917048204
1.4046445787113306,-1.461272621539973
1.4066454969146232,-1.4533302777592385
1.4086464151179157,-1.4433256867427757
1.4106473333212082,-1.4467549627931084
1.4126482515245007,-1.4537843934955976
1.4146491697277932,-1.468791280020291
1.4166500879310857,-1.4761437415043122
1.4186510061343782,-1.4761437415043122
1.4206519243376707,-1.4720543590743258
1.4226528425409632,-1.4676770579042784
1.4246537607442558,-1.4676770579042784
1.4266546789475483,-1.4655141561496658
1.4286555971508406,-1.4605118606414353
1.430656515354133,-1.4592103743042446
1.4326574335574256,-1.4589739532250063
1.434658351760718,-1.453971657716775
1.4366592699640106,-1.4525180191998772
1.4386601881673031,-1.4575203147081084
1.4406611063705956,-1.465834846128435
1.4426620245738881,-1.475839437144898
1.4446629427771807,-1.4712935981757882
1.4466638609804732,-1.4247186455659149
1.4486647791837657,-1.2696474848107393
1.4506656973870582,-1.2081335289563788
1.4526666155903505,-1.2131358244646093
1.454667533793643,-1.2136765499032625
1.4566684519969355,-1.2136765499032625
1.458669370200228,-1.2136765499032625
1.4606702884035205,-1.2136765499032625
1.462671206606813,-1.2136765499032625
1.4646721248101056,-1.2136765499032625
1.466673043013398,-1.2106335063091094
1.4686739612166906,-1.1856220287679538
1.470674879419983,-1.1713431319030931
1.4726757976232756,-1.1713431319030931
1.4746767158265681,-1.167658708351405
1.4766776340298604,-1.1626564128431744
1.478678552233153,-1.157654117334943
1.4806794704364454,-1.1544097647030251
1.482680388639738,-1.1544097647030251
1.4846813068430305,-1.1544097647030251
1.486682225046323,-1.1544097647030251
1.4886831432496155,-1.1544097647030251
1.490684061452908,-1.153040395085657
1.4926849796562005,-1.148038099577426
1.494685897859493,-1.1459430811029914
1.4966868160627855,-1.1459430811029914
1.498687734266078,-1.1414978966527656
1.5006886524693703,-1.1355148047861126
1.5026895706726628,-1.1255102137696498
1.5046904888759554,-1.0789844180178427
1.5066914070792479,-0.9964465421320289
1.5086923252825404,-0.9139086662462106
1.510693243485833,-0.8405502484022946
1.5126941616891254,-0.8355479528940635
1.514695079892418,-0.8348059184176444
1.5166959980957104,-0.8398082139258753
1.518696916299003,-0.8154662059754296
1.5206978345022955,-0.7820793361420673
1.522698752705588,-0.7870816316502984
1.5246996709088803,-0.9575318665697472
1.5267005891121728,-1.4377522353599677
1.5287015073154653,-1.5998645308314312
1.5307024255187578,-1.5948622353232
1.5327033437220503,-1.5946773119047863
1.5347042619253428,-1.5960302959028017
1.5367051801286353,-1.6010325914110326
1.5387060983319278,-1.606034886919264
1.5407070165352204,-1.6110371824274956
1.5427079347385129,-1.6116106791048541
1.5447088529418054,-1.4004047272485425
1.546709771145098,-0.3049020109459233
1.5487106893483904,0.24259302930256288
1.5507116075516827,0.24259302930256288
1.5527125257549752,0.23855280373063614
1.5547134439582677,0.234702183182653
1.5567143621615602,0.2397044786908844
1.5587152803648527,0.24047928440600996
1.5607161985681453,0.23547698889777902
1.5627171167714378,0.23777799801551058
1.5647180349747303,0.26394115051699174
1.5667189531780228,0.8342028384553415
1.5687198713813153,1.2060697880688158
1.5707207895846078,1.2010674925605849
1.5727217077879003,1.202591355160426
1.5747226259911926,1.2075936506686569
1.5767235441944851,1.2029939732359591
1.5787244623977776,1.1993282761063897
1.5807253806010702,1.1993282761063897
1.5827262988043627,1.1993282761063897
1.5847272170076552,1.1993282761063897
1.5867281352109477,1.1993282761063897
1.5887290534142402,1.1993282761063897
1.5907299716175327,1.1993282761063897
1.5927308898208252,1.1993282761063897
1.5947318080241177,1.1993282761063897
1.5967327262274102,1.1953044361538159
1.5987336444307025,1.191421044367127
1.600734562633995,1.1964233398753579
1.6027354808372876,1.1993282761063897
1.60473639904058,1.1993282761063897
1.6067373172438726,1.1993282761063897
1.608738235447165,1.199157397504564
1.6107391536504576,1.1941551019963326
1.6127400718537501,0.8063847383990734
1.6147409900570426,-0.31913175095293256
1.6167419082603351,-0.7141422175012642
1.6187428264636277,-0.7141422175012642
1.6207437446669202,0.07770922335772523
1.6227446628702125,0.9055891299699268
1.624745581073505,1.7334690365821799
1.6267464992767975,2.085471933934208
1.62874741748009,2.0804696384259764
1.6307483356833825,2.075467342917746
1.632749253886675,2.0723283264102412
1.6347501720899675,2.0773306219184726
1.63675109029326,2.082332917426704
1.6387520084965526,2.0873352129349354
1.640752926699845,2.084322599776725
1.6427538449031376,2.0804064367513297
1.64475476310643,2.085408732259561
1.6467556813097224,2.0904110277677916
1.648756599513015,2.095413323276023
1.6507575177163074,2.093177856635704
1.6527584359196,2.0673190084936715
1.6547593541228924,1.3870068193742369
1.656760272326185,0.93686108450534
1.6587611905294775,0.93686108450534
1.66076210873277,0.93363077669001
1.6627630269360625,0.9286284811817787
1.664763945139355,0.9283944009053058
1.6667648633426475,0.9283944009053058
1.66876578154594,0.9283944009053058
1.6707666997492325,0.9312361354616905
1.6727676179525248,0.9362384309699214
1.6747685361558173,0.9412407264781528
1.6767694543591098,0.9462430219863842
1.6787703725624024,0.9512453174946152
1.6807712907656949,0.9537944517054076
1.6827722089689874,0.9537944517054076
1.68477312717228,0.9537944517054076
1.6867740453755724,0.9543211323274727
1.688774963578865,0.9593234278357041
1.6907758817821574,0.9622611353054413
1.69277679998545,0.9622611353054413
1.6947777181887425,0.9622611353054413
1.6967786363920347,0.9622611353054413
1.6987795545953273,0.9622611353054413
1.7007804727986198,1.0091895491327851
1.7027813910019123,1.149253823363257
1.7047823092052048,1.1993282761063897
1.7067832274084973,1.1993282761063897
1.7087841456117898,1.2040801057187949
1.7107850638150823,1.2090824012270263
1.7127859820183748,1.2140846967352577
1.7147869002216674,1.2077855964953623
1.7167878184249599,1.1927787099706695
1.7187887366282524,1.190861592506356
1.7207896548315447,1.190861592506356
1.7227905730348372,1.190861592506356
1.7247914912381297,1.1932983681844416
1.7267924094414222,1.1983006636926725
1.7287933276447147,1.1993282761063897
1.7307942458480072,1.1993282761063897
1.7327951640512997,1.1993282761063897
1.7347960822545923,1.1972800736872493
1.7367970004578848,1.192277778179018
1.7387979186611773,1.190861592506356
1.7407988368644698,1.1909833142501225
1.7427997550677623,1.1959856097583539
1.7448006732710546,1.1395816263393708
1.746801591474347,0.95949898804305
1.7488025096776396,0.8945276665051707
1.7508034278809321,0.8945276665051707
1.7528043460842246,0.8945276665051707
1.7548052642875172,0.8945276665051707
1.7568061824908097,0.8945276665051707
1.7588071006941022,0.16981513054419306
1.7608080188973947,-1.1207771105795254
1.7628089371006872,-1.289876702303567
1.7648098553039797,-1.2907591849458715
1.7668107735072722,-1.2957614804541029
1.7688116917105645,-1.298343385903601
1.770812609913857,-1.298343385903601
1.7728135281171495,-1.3260514682297284
1.774814446320442,-1.3665005400042889
1.7768153645237346,-1.4565418591524553
1.778816282727027,-1.1138061999459223
1.7808172009303196,-0.13835857584085054
1.782818119133612,0.21417217253458354
1.7848190373369046,0.3167192304533284
1.7868199555401971,0.4192662883720666
1.7888208737434896,0.5218133462908074
1.7908217919467821,0.6243604042095523
1.7928227101500744,0.7269074621282816
1.794823628353367,0.8294545200470198
1.7968245465566595,0.8305418229312345
1.798825464759952,0.8380862302419692
1.8008263829632445,0.8831068898160495
1.802827301166537,0.9113720832001793
1.8048282193698295,0.9263789697248725
1.806829137573122,1.010673618085626
1.8088300557764145,1.0909935833518518
1.810830973979707,1.1009981743683142
1.8128318921829996,1.1061947565060173
1.814832810386292,1.1061947565060173
1.8168337285895846,1.1101366683618257
1.8188346467928769,1.1132288688140348
1.8208355649961694,1.0982219822893406
1.822836483199462,1.0872459581255152
1.8248374014027544,1.0822436626172838
1.826838319606047,1.0843480443027782
1.8288392378093394,1.0881050327401698
1.830840156012632,1.0230751911331608
1.8328410742159245,0.9808213604269982
1.834841992419217,0.9858236559352291
1.8368429106225095,0.9686725940780381
1.838843828825802,0.9386588210286493
1.8408447470290945,0.93686108450534
1.8428456652323868,0.93686108450534
1.8448465834356793,0.93686108450534
1.8468475016389718,0.9396372765843122
1.8488484198422643,0.9446395720925431
1.8508493380455568,0.9410136686099735
1.8528502562488494,0.93686108450534
1.8548511744521419,0.93686108450534
1.8568520926554344,0.93686108450534
1.858853010858727,0.93686108450534
1.8608539290620194,0.93686108450534
1.862854847265312,0.93686108450534
1.8648557654686044,0.93686108450534
1.8668566836718967,1.012824815826412
1.8688576018751892,1.2029120451392075
1.8708585200784817,1.2585950613066266
1.8728594382817743,1.2586676261923335
1.8748603564850668,1.263669921700565
1.8768612746883593,1.2654512726045253
1.8788621928916518,1.2604489770962934
1.8808631110949443,1.4474978444204858
1.8828640292982368,1.7476355749143542
1.8848649475015293,1.771282364443652
1.8868658657048218,1.3864988651740964
1.8888667839081144,-0.20423110644340525
1.8908677021114066,-0.47853339682272145
1.8928686203146992,0.3168315889860813
1.8948695385179917,0.454646351759592
1.8968704567212842,0.47966017010351125
1.8988713749245767,0.47966017010351125
1.9008722931278692,0.4820314033041848
1.9028732113311617,0.48703369881241576
1.9048741295344542,0.49203599432064715
1.9068750477377467,0.4961487847782795
1.9088759659410393,0.4911464892700481
1.9108768841443318,0.488126853703545
1.9128778023476243,0.488126853703545
1.9148787205509166,0.488126853703545
1.916879638754209,0.4905987414231179
1.9188805569575016,0.710699743785288
1.920881475160794,0.8622550187878177
1.9228823933640866,0.8672573142960491
1.9248833115673791,0.8722596098042801
1.9268842297706716,0.8772619053125115
1.9288851479739642,0.872924397789463
1.9308860661772567,0.8751551828242543
1.9328869843805492,0.9001666603654117
1.9348879025838417,0.9114610337052382
1.9368888207871342,0.9114610337052382
1.9388897389904267,0.9114610337052382
1.940890657193719,0.9114610337052382
1.9428915753970115,0.9114610337052382
1.944892493600304,0.9114610337052382
1.9468934118035965,0.9114610337052382
1.948894330006889,0.9114610337052382
1.9508952482101816,0.9114610337052382
1.952896166413474,0.9114610337052382
1.9548970846167666,0.9114610337052382
1.956898002820059,0.9114610337052382
1.9588989210233516,0.8974443067500237
1.9608998392266441,0.8775545056581016
1.9629007574299366,0.8725522101498702
1.964901675633229,0.9164586476079482
1.9669025938365214,1.0665275128548823
1.968903512039814,1.1231281237060848
1.9709044302431065,1.1231281237060848
1.972905348446399,1.1231281237060848
1.9749062666496915,1.1231281237060848
1.976907184852984,1.1231281237060848
1.9789081030562765,1.1258551589269978
1.980909021259569,1.1308574544352288
1.9829099394628615,1.1315948073061186
1.984910857666154,1.1307942527605799
1.9869117758694466,1.1257919572523485
1.9889126940727389,1.1231281237060848
1.9909136122760314,1.1231281237060848
1.9929145304793239,1.1270044930844803
1.9949154486826164,1.1311828260195256
1.996916366885909,1.1261805305112942
1.9989172850892014,1.1211782350030632
2.000918203292494,1.1161759394948318
2.002919121495786,0.6159065950247253
2.004920039699079,-0.09607431469879191
2.0069209579023712,-0.09607431469879191
2.008921876105664,-0.09607431469879191
2.0109227943089563,-0.09607431469879191
2.012923712512249,-0.09607431469879191
2.0149246307155413,-0.09607431469879191
2.016925548918834,-0.08216292386799018
2.0189264671221263,-0.08709265449051684
2.020927385325419,-0.15712479160576498
2.0229283035287113,-0.22715692872099758
2.0249292217320036,-0.2971890658362304
2.0269301399352964,-0.36722120295147875
2.0289310581385887,-0.43725334006671
2.0309319763418814,-0.5072854771819493
2.0329328945451737,-0.577317614297177
2.0349338127484664,-0.6473497514124253
2.0369347309517587,-0.7173818885276582
2.0389356491550514,-0.7826668776360166
2.0409365673583437,-0.7926714686524772
2.0429374855616365,-0.7968755504179341
2.0449384037649287,-0.7918732549097032
2.0469393219682215,-0.7938137804016667
2.0489402401715138,-0.7988160759098977
2.050941158374806,-0.8038183714181286
2.052942076578099,-0.8072757371016368
2.054942994781391,-0.8072757371016368
2.056943912984684,-0.801110062619333
2.058944831187976,-0.7911054716028711
2.060945749391269,-0.790342369901569
2.062946667594561,-0.790342369901569
2.064947585797854,-0.790342369901569
2.066948504001146,-0.787648105919363
2.068949422204439,-0.7826458104111309
2.070950340407731,-0.7861078577001701
2.072951258611024,-0.790342369901569
2.074952176814316,-0.790342369901569
2.0769530950176085,-0.790342369901569
2.0789540132209012,-0.790342369901569
2.0809549314241935,-0.790342369901569
2.0829558496274863,-0.790342369901569
2.0849567678307785,-0.790342369901569
2.0869576860340713,-0.788425252437253
2.0889586042373636,-0.7834229569290225
2.0909595224406563,-0.7853307111822794
2.0929604406439486,-0.7903330066905103
2.0949613588472413,-0.7953353021987424
2.0969622770505336,-0.7972805092962325
2.098963195253826,-0.7922782137880016
2.1009641134571186,-0.790342369901569
2.102965031660411,-0.790342369901569
2.1049659498637037,-0.09508415512923563
2.106966868066996,0.48698688275712065
2.1089677862702887,0.4819845872488888
2.110968704473581,0.4823380484663642
2.1129696226768737,0.4873403439745956
2.114970540880166,0.488126853703545
2.1169714590834587,0.488126853703545
2.118972377286751,0.488126853703545
2.1209732954900438,0.488126853703545
2.122974213693336,0.488126853703545
2.1249751318966283,0.5493622540289227
2.126976050099921,0.6235937913040868
2.1289769683032134,0.6235937913040868
2.130977886506506,0.6216930594591239
2.1329788047097984,0.6166907639508934
2.134979722913091,0.6116884684426616
2.1369806411163834,0.6066861729344315
2.138981559319676,0.8455346646393664
2.1409824775229684,1.0145733954916616
2.142983395726261,1.0195756909998934
2.1449843139295535,1.02762805251057
2.1469852321328458,1.037632643527032
2.1489861503361385,1.0430492611246205
2.150987068539431,1.0727704338284094
2.1529879867427235,1.1878232305177456
2.154988904946016,1.244323186850059
2.1569898231493085,1.2493254823582909
2.158990741352601,1.2543277778665214
2.1609916595558936,1.2593300733747528
2.162992577759186,1.2643323688829837
2.1649934959624786,1.2647888254221056
2.166994414165771,1.2597865299138746
2.1689953323690636,1.2547842344056424
2.170996250572356,1.2386958970036153
2.172997168775648,1.0736201452320167
2.174998086978941,0.9726121651310842
2.176999005182233,0.9776144606393156
2.178999923385526,0.9620832342953185
2.1810008415888182,0.9370717567541638
2.183001759792111,0.9319009234468734
2.1850026779954033,0.9283944009053058
2.187003596198696,0.9283944009053058
2.1890045144019883,0.9283944009053058
2.191005432605281,0.9283944009053058
2.1930063508085733,0.859820583912486
2.195007269011866,0.8002869471970784
2.1970081872151583,0.7952846516888483
2.1990091054184506,0.792927463304764
2.2010100236217434,0.792927463304764
2.2030109418250357,0.792927463304764
2.2050118600283284,0.792927463304764
2.2070127782316207,0.792927463304764
2.2090136964349134,0.792927463304764
2.2110146146382057,0.792927463304764
2.2130155328414984,0.792927463304764
2.2150164510447907,0.792927463304764
2.2170173692480835,0.792927463304764
2.2190182874513757,0.792927463304764
2.221019205654668,0.792927463304764
2.2230201238579608,0.792927463304764
2.225021042061253,0.792927463304764
2.227021960264546,0.792927463304764
2.229022878467838,0.792927463304764
2.231023796671131,0.792927463304764
2.233024714874423,0.7899101685410246
2.235025633077716,0.7849078730327932
2.237026551281008,0.7890159818848979
2.239027469484301,0.7940182773931301
2.241028387687593,0.7990205729013606
2.243029305890886,0.9985482597643949
2.245030224094178,1.373720422881664
2.2470311422974705,1.44056204582856
2.249032060500763,1.4455643413367918
2.2510329787040555,1.4505666368450227
2.2530338969073482,1.4510886358615567
2.2550348151106405,1.4460863403533257
2.2570357333139333,1.4448621005073718
2.2590366515172255,1.445175768077846
2.2610375697205183,1.450178063586078
2.2630384879238106,1.4514772091205024
2.2650394061271033,1.4464749136122705
2.2670403243303956,1.3581478423554687
2.269041242533688,1.2301724489365782
2.2710421607369806,1.1021970555176424
2.273043078940273,0.974221662098735
2.2750439971435656,0.8462462686797991
2.277044915346858,0.7182708752608917
2.2790458335501507,0.5902954818419563
2.281046751753443,0.46232008842306405
2.2830476699567357,0.3343446950041411
2.285048588160028,0.20636930158523326
2.2870495063633207,0.07839390816629743
2.289050424566613,-0.049581485252609525
2.2910513427699057,-0.17755687867153158
2.293052260973198,-0.3055322720904248
2.2950531791764903,-0.4335076655093322
2.297054097379783,-0.561483058928268
2.2990550155830753,-0.6894584523471754
2.301055933786368,-0.8174338457661112
2.3030568519896604,-0.9454092391850175
2.305057770192953,-1.0733846326039367
2.3070586883962454,-1.1544097647030251
2.309059606599538,-1.1544097647030251
2.3110605248028304,-1.1510366679190467
2.313061443006123,-1.1460343724108146
2.3150623612094154,-1.1410320769025843
2.317063279412708,-1.1389230136115622
2.3190641976160005,-1.1439253091197932
2.3210651158192928,-1.1459430811029914
2.3230660340225855,-1.1459430811029914
2.325066952225878,-1.1459430811029914
2.3270678704291705,-1.1459430811029914
2.329068788632463,-1.1459430811029914
2.3310697068357555,-1.1459430811029914
2.333070625039048,-1.1459430811029914
2.3350715432423406,-1.1418092234204744
2.337072461445633,-1.1368069279122437
2.3390733796489256,-1.1318046324040123
2.341074297852218,-1.1290097139029236
2.34307521605551,-1.1290097139029236
2.345076134258803,-1.1177738606322107
2.347077052462095,-1.0951827731497823
2.349077970665388,-0.9451139079028219
2.35107888886868,-0.8477903513536094
2.353079807071973,-0.8427880558453777
2.3550807252752652,-0.8411424715017721
2.357081643478558,-0.8411424715017721
2.3590825616818503,-0.8411424715017721
2.361083479885143,-0.8311308580770065
2.3630843980884353,-0.7961147895193901
2.365085316291728,-0.784843824207216
2.3670862344950203,-0.7898461197154463
2.3690871526983126,-0.7948484152236772
2.3710880709016053,-0.8008923679622153
2.3730889891048976,-0.8108969589786772
2.3750899073081904,-0.8183219853484056
2.3770908255114827,-0.8233242808566357
2.3790917437147754,-0.8200916322385412
2.3810926619180677,-0.8366411077852016
2.3830935801213604,-0.9967145640486264
2.3850944983246527,-1.0844853045149647
2.3870954165279454,-1.0794830090067329
2.3890963347312377,-1.0782096123027203
2.39109725293453,-1.0782096123027203
2.3930981711378227,-1.0782096123027203
2.395099089341115,-1.0782096123027203
2.3971000075444078,-1.0782096123027203
2.3991009257477,-1.0782096123027203
2.401101843950993,-1.0782096123027203
2.403102762154285,-1.0782096123027203
2.405103680357578,-1.079623457172619
2.40710459856087,-1.08462575268085
2.409105516764163,-1.0866762959027543
2.411106434967455,-1.0866762959027543
2.413107353170748,-1.1001452750110228
2.41510827137404,-1.1120763467028558
2.4171091895773325,-1.1120763467028558
2.419110107780625,-1.1146395257302377
2.4211110259839175,-1.1196418212384687
2.42311194418721,-1.1205430303028898
2.4251128623905025,-1.1211797286548966
2.4271137805937952,-1.1261820241631284
2.4291146987970875,-1.1333589254397953
2.4311156170003803,-1.1433635164562594
2.4331165352036725,-1.1496555942878564
2.4351174534069653,-1.1544097647030251
2.4371183716102576,-1.1544097647030251
2.4391192898135503,-1.1544097647030251
2.4411202080168426,-1.1544097647030251
2.443121126220135,-1.1544097647030251
2.4451220444234276,-1.1544097647030251
2.44712296262672,-1.1544097647030251
2.4491238808300126,-1.1558072239535702
2.451124799033305,-1.160809519461801
2.4531257172365977,-1.1628764483030591
2.45512663543989,-1.1628764483030591
2.4571275536431827,-1.1628764483030591
2.459128471846475,-1.1638853342946591
2.4611293900497677,-1.1688876298028905
2.46313030825306,-1.1382348175987265
2.4651312264563523,-1.0732049759917246
2.467132144659645,-1.0612762451026527
2.4691330628629373,-1.0612762451026527
2.47113398106623,-1.0612762451026527
2.4731348992695223,-1.0591180249535705
2.475135817472815,-1.0541157294453383
2.4771367356761074,-1.0565056890681301
2.4791376538794,-1.0610445056289433
2.4811385720826924,-1.0560422101207123
2.483139490285985,-1.0545792083927572
2.4851404084892774,-1.0595815039009873
2.48714132669257,-1.0612762451026527
2.4891422448958624,-1.0612762451026527
2.4911431630991547,-1.0612762451026527
2.4931440813024475,-1.0598951714714602
2.4951449995057398,-1.0548928759632301
2.4971459177090325,-1.0557285425502394
2.499146835912325,-1.0607308380584703
2.5011477541156175,-1.056819356638603
2.50314867231891,-1.0538020618748654
2.5051495905222025,-1.0588043573830976
2.507150508725495,-1.0587458373139773
2.5091514269287876,-1.053743541805746
2.51115234513208,-1.0568778767077225
2.513153263335372,-1.0522173384031417
2.515154181538665,-0.9771829057796615
2.517155099741957,-0.9342759911021448
2.51915601794525,-0.9342759911021448
2.521156936148542,-0.9342759911021448
2.523157854351835,-0.9140327287926902
2.525158772555127,-0.44381695101898444
2.52715969075842,-0.252369715299984
2.5291606089617122,-0.5775189233349931
2.531161527165005,-0.6887421667011626
2.5331624453682973,-0.6887421667011626
2.53516336357159,-0.6935712428048046
2.5371642817748823,-0.7135851064432648
2.5391651999781746,-0.7736126525420357
2.5411661181814673,-0.7988090535016028
2.5431670363847596,-0.7988090535016028
2.5451679545880523,-0.7943685506569063
2.5471688727913446,-0.7913184846544621
2.5491697909946374,-0.7963207801626941
2.5511707091979297,-0.8013230756709251
2.5531716274012224,-0.8063253711791571
2.5551725456045147,-0.803223807515886
2.5571734638078074,-0.7982215120076546
2.5591743820110997,-0.7932192164994236
2.5611753002143924,-0.7924678188119463
2.5631762184176847,-0.7974701143201772
2.565177136620977,-0.7988090535016028
2.5671780548242698,-0.7988090535016028
2.569178973027562,-0.7988090535016028
2.5711798912308548,-0.7970721778501715
2.573180809434147,-0.7920698823419405
2.57518172763744,-0.790342369901569
2.577182645840732,-0.790342369901569
2.579183564044025,-0.790342369901569
2.581184482247317,-0.7889940675090836
2.58318540045061,-0.7839917720008516
2.585186318653902,-0.776103266683706
2.5871872368571944,-0.7660986756672441
2.589188155060487,-0.7560940846507802
2.5911890732637795,-0.7480089519013997
2.593189991467072,-0.7480089519013997
2.5951909096703645,-0.840421504250237
2.597191827873657,-1.0255064380548218
2.5991927460769495,-1.0895250528674363
2.6011936642802422,-1.1211141861774854
2.6031945824835345,-1.1261164816857159
2.6051955006868273,-1.1353369037759948
2.6071964188901195,-1.1503437903006877
2.6091973370934123,-1.1544097647030251
2.6111982552967046,-1.1544097647030251
2.613199173499997,-1.1544097647030251
2.6152000917032896,-1.1544097647030251
2.617201009906582,-1.1544097647030251
2.6192019281098746,-1.1544097647030251
2.621202846313167,-1.1544097647030251
2.6232037645164596,-1.1544097647030251
2.625204682719752,-1.155741681476158
2.6272056009230447,-1.1607439769843895
2.629206519126337,-1.1628764483030591
2.6312074373296297,-1.1628764483030591
2.633208355532922,-0.995382647275439
2.6352092737362143,-0.7647316468526213
2.637210191939507,-0.35954571068582775
2.6392111101427993,-0.155341099899029
2.641212028346092,-0.155341099899029
2.6432129465493843,-0.15936025824607292
2.645213864752677,-0.16380778349906278
2.6472147829559693,-0.16380778349906278
2.649215701159262,-0.16380778349906278
2.6512166193625544,-0.16380778349906278
2.653217537565847,-0.4179487396660093
2.6552184557691394,-0.7564756355014335
2.657219373972432,-0.7564756355014335
2.6592202921757244,-0.7649961575650601
2.6612212103790167,-0.7900076351062149
2.6632221285823094,-1.0225078697132277
2.6652230467856017,-1.3676662597811153
2.6672239649888945,-0.30752839164790746
2.6692248831921868,0.5233091192574602
2.6712258013954795,0.528311414765692
2.673226719598772,0.1823407661383265
2.6752276378020645,-0.42793928586590013
2.677228556005357,-0.5024751275004176
2.6792294742086495,-0.5024751275004176
2.681230392411942,-0.5024751275004176
2.683231310615234,-0.50493999281168
2.685232228818527,-0.5099422883199121
2.687233147021819,-0.4949307201896871
2.689234065225112,-0.4770750767003158
2.691234983428404,-0.4770750767003158
2.693235901631697,-0.4791513687526334
2.695236819834989,-0.4841536642608646
2.697237738038282,-0.489155959769096
2.699238656241574,-0.49415825527732626
2.701239574444867,-0.4991605507855583
2.7032404926481592,-0.5007874087070459
2.705241410851452,-0.4957851131988136
2.7072423290547443,-0.49078281769058285
2.7092432472580366,-0.4857805221823519
2.7112441654613293,-0.49030529392657907
2.7132450836646216,-0.44204262252335025
2.7152460018679143,-0.2419508021940695
2.7172469200712066,0.054600818464233036
2.7192478382744993,0.4247706860734026
2.7212487564777916,0.47119348650347703
2.7232496746810844,0.4721040587789589
2.7252505928843767,0.4771063542871894
2.7272515110876694,0.47966017010351125
2.7292524292909617,0.47966017010351125
2.7312533474942544,0.746748106362233
2.7332542656975467,1.04692797130578
2.735255183900839,1.04692797130578
2.7372561021041317,1.0654671292024571
2.739257020307424,1.1104877887765352
2.7412579385107168,1.1195303098566916
2.743258856714009,1.114661440106051
2.7452597749173018,1.114661440106051
2.747260693120594,1.114661440106051
2.749261611323887,1.114661440106051
2.751262529527179,1.114661440106051
2.753263447730472,1.114661440106051
2.755264365933764,1.114661440106051
2.7572652841370564,1.1518614776431737
2.759266202340349,1.2969280473818832
2.7612671205436414,1.3601952645070332
2.763268038746934,1.3601952645070332
2.7652689569502265,1.3645538392549637
2.767269875153519,1.29355026899227
2.7692707933568115,0.8733574463008735
2.771271711560104,0.6574605257042223
2.7732726297633965,0.6574605257042223
2.7752735479666892,0.6574605257042223
2.7772744661699815,0.6569549123070395
2.7792753843732743,0.6519526167988077
2.7812763025765666,0.46507696887916294
2.783277220779859,0.014870373138439863
2.7852781389831516,-0.10942625366881997
2.787279057186444,-0.10465803843706234
2.7892799753897366,-0.1096603339452944
2.791280893593029,-0.06170430770422208
2.7932818117963216,0.09336685305097081
2.795282729999614,0.14945950970219046
2.7972836482029066,0.14945950970219046
2.799284566406199,0.15419027208971325
2.8012854846094917,0.15792619330222424
2.803286402812784,0.15792619330222424
2.8052873210160763,0.1551219115900757
2.807288239219369,0.15011961608184432
2.8092891574226613,0.14945950970219046
2.811290075625954,0.15121511177574032
2.8132909938292463,0.1612197027922022
2.815291912032539,0.17364000226187004
2.8172928302358313,0.18864688878656288
2.819293748439124,-0.2707801290446512
2.8212946666424163,-0.7992982812794318
2.823295584845709,-0.8043005767876639
2.8252965030490014,-0.8701169281236374
2.827297421252294,-1.02518808887883
2.8292983394555864,-1.0697429287026865
2.8312992576588787,-1.0697429287026865
2.8333001758621714,-1.0697429287026865
2.8353010940654637,-1.0713814906379988
2.8373020122687564,-1.0763837861462306
2.8393029304720487,-1.0782096123027203
2.8413038486753415,-1.0782096123027203
2.8433047668786338,-1.0782096123027203
2.8453056850819265,-1.0769596236263532
2.847306603285219,-1.0719573281181223
2.8493075214885115,-1.0669550326098902
2.851308439691804,-1.0619527371016593
2.8533093578950965,-1.0958826731764517
2.855310276098389,-1.1290097139029236
2.857311194301681,-1.1290097139029236
2.859312112504974,-1.1290097139029236
2.861313030708266,-1.1290097139029236
2.863313948911559,-1.125072483652644
2.865314867114851,-1.1214887146198427
2.867315785318144,-1.1314933056363055
2.869316703521436,-1.1374763975029576
2.871317621724729,-1.1374763975029576
2.873318539928021,-1.1374763975029576
2.875319458131314,-1.1377292042015528
2.8773203763346062,-1.1527360907262434
2.8793212945378985,-1.1628764483030591
2.8813222127411913,-1.1628764483030591
2.8833231309444836,-1.1628764483030591
2.8853240491477763,-1.1628764483030591
2.8873249673510686,-1.1628764483030591
2.8893258855543613,-1.1628764483030591
2.8913268037576536,-1.1628764483030591
2.8933277219609463,-1.165647958776502
2.8953286401642386,-1.170650254284733
2.8973295583675314,-1.1713431319030931
2.8993304765708237,-1.1713431319030931
2.9013313947741164,-1.1713431319030931
2.9033323129774087,-1.1737260691175906
2.905333231180701,-1.1787283646258209
2.9073341493839937,-1.211736693212095
2.909335067587286,-1.2524696709219754
2.9113359857905787,-1.2932026486318646
2.913336903993871,-1.3339356263417428
2.9153378221971638,-1.374668604051627
2.917338740400456,-1.4154015817615055
2.9193396586037488,-1.456134559471395
2.921340576807041,-1.4968675371812752
2.923341495010334,-1.5376005148911644
2.925342413213626,-1.5783334926010446
2.9273433314169184,-1.6190664703109217
2.929344249620211,-1.6597994480208056
2.9313451678235034,-1.6624107807050572
2.933346086026796,-1.6636279981427187
2.9353470042300884,-1.6686302936509494
2.937347922433381,-1.684653088575541
2.9393488406366735,-1.7096645661166923
2.941349758839966,-1.7132108823052605
2.9433506770432585,-1.7132108823052605
2.945351595246551,-1.7132108823052605
2.9473525134498435,-1.710844330710116
2.9493534316531362,-1.7058420352018842
2.9513543498564285,-1.7086486577167996
2.953355268059721,-1.7127708113854911
2.9553561862630136,-1.707768515877259
2.957357104466306,-1.7067221770414251
2.9593580226695986,-1.711724472549657
2.961358940872891,-1.7096949965526334
2.9633598590761836,-1.7048986916877003
2.965360777279476,-1.719905578212393
2.9673616954827686,-1.7365018698143428
2.969362613686061,-1.7565110518472664
2.9713635318893536,-1.7640109839054636
2.973364450092646,-1.7640109839054636
2.9753653682959387,-1.7593457639953525
2.977366286499231,-1.7111135230280448
2.9793672047025233,-1.5260285892235013
2.981368122905816,-1.43953826786944
2.9833690411091083,-1.434535972361209
2.985369959312401,-1.4338103235041428
2.9873708775156933,-1.432998064944781
2.989371795718986,-1.427995769436549
2.9913727139222783,-1.439444635758854
2.993373632125571,-1.469458408808246
2.9953745503288634,-1.4800318148965321
2.997375468532156,-1.4642735306842825
2.9993763867354484,-1.2241633462892303
3.0013773049387407,-1.0782096123027203
3.0033782231420334,-1.0782096123027203
3.0053791413453257,-1.0782096123027203
3.0073800595486184,-1.0782096123027203
3.0093809777519107,-1.0782096123027203
3.0113818959552034,-1.0797826317606205
3.0133828141584957,-1.0847849272688515
3.0153837323617885,-1.0928981496514125
3.0173846505650808,-1.1029027406678744
3.0193855687683735,-1.1175561659750965
3.021386486971666,-1.1301941601018788
3.0233874051749585,-1.1351964556101102
3.025388323378251,-1.1374763975029576
3.027389241581543,-1.1374763975029576
3.029390159784836,-1.133216136471145
3.031391077988128,-1.1282138409629145
3.033391996191421,-1.1232115454546832
3.035392914394713,-1.1252105910157644
3.037393832598006,-1.1352151820322283
3.039394750801298,-1.1452197730486902
3.041395669004591,-1.1548170643840896
3.043396587207883,-1.1598193598923205
3.045397505411176,-1.1687120695955389
3.047398423614468,-1.1837189561202297
3.0493993418177605,-1.191759613617081
3.0514002600210532,-1.1967806355474315
3.0534011782243455,-1.2067852265638934
3.0554020964276383,-1.2136765499032625
3.0574030146309306,-1.2136765499032625
3.0594039328342233,-1.2136765499032625
3.0614048510375156,-1.2136765499032625
3.0634057692408083,-1.2136765499032625
3.0654066874441006,-1.2136765499032625
3.0674076056473933,-1.2136765499032625
3.0694085238506856,-1.2136765499032625
3.0714094420539784,-1.2136765499032625
3.0734103602572707,-1.2136765499032625
3.075411278460563,-1.2136765499032625
3.0774121966638557,-1.2136765499032625
3.079413114867148,-1.2136765499032625
3.0814140330704407,-1.2136765499032625
3.083414951273733,-1.235266241962937
3.0854158694770257,-1.263279096809033
3.087416787680318,-1.291291951655126
3.0894177058836108,-1.3193048065012254
3.091418624086903,-1.3473176613473186
3.093419542290196,-1.3753305161934153
3.095420460493488,-1.4033433710395047
3.097421378696781,-1.431356225885604
3.099422296900073,-1.4522839389234048
3.1014232151033654,-1.4572862344316355
3.103424133306658,-1.4622885299398676
3.1054250515099504,-1.4672908254480985
3.107425969713243,-1.4630609948522268
3.1094268879165354,-1.4580586993439963
3.111427806119828,-1.4530564038357645
3.1134287243231205,-1.437295778820825
3.115429642526413,-1.4122843012796649
3.1174305607297055,-1.4041827829109357
3.119431478932998,-1.4297045554548342
3.1214323971362905,-1.6247940802758398
3.123433315339583,-1.727843240387597
3.1254342335428755,-1.722840944879365
3.127435151746168,-1.717838649371134
3.1294360699494606,-1.7128363538629021
3.131436988152753,-1.7078340583546718
3.1334379063560456,-1.7028317628464402
3.135438824559338,-1.6978294673382093
3.1374397427626306,-1.6928271718299772
3.139440660965923,-1.6878248763217463
3.1414415791692156,-1.677834330121871
3.143442497372508,-1.1146676153633295
3.1454434155758006,0.711170245141358
3.147444333779093,1.1673763183677472
3.1494452519823852,0.7555206548567361
3.151446170185678,0.3436649913456331
3.1534470883889703,-0.06819067216536645
3.155448006592263,-0.4800463356764155
3.1574489247955553,-0.6744819962584183
3.159449842998848,-0.6794842917666504
3.1614507612021403,-0.6886976914486338
3.163451679405433,-0.7024358628748513
3.1654525976087253,-0.737451931432463
3.167453515812018,-0.822729716954417
3.1694544340153104,-0.9677962866931134
3.1714553522186026,-0.9484940270951219
3.1734562704218954,-0.8784618899798735
3.1754571886251877,-0.8084297528646407
3.1774581068284804,-0.7630462688620336
3.1794590250317727,-0.7580439733538034
3.1814599432350654,-0.7530416778455717
3.1834608614383577,-0.7480393823373408
3.1854617796416504,-0.7430370868291087
3.1874626978449427,-0.7410497452818534
3.1894636160482355,-0.746052040790085
3.1914645342515278,-0.7693266426798113
3.1934654524548205,-0.8043427112374355
3.195466370658113,-0.4497789756607271
3.197467288861405,-0.1423988014128268
3.199468207064698,-0.12238961937989878
3.20146912526799,-0.11300768189885968
3.203470043471283,-0.11300768189885968
3.205470961674575,-0.11300768189885968
3.207471879877868,-0.1122773514362625
3.20947279808116,-0.10727505592803155
3.211473716284453,-0.10227276041979971
3.213474634487745,-0.09727046491156943
3.215475552691038,-0.099880459994246
3.21747647089433,-0.10454099829882568
3.219477389097623,-0.10454099829882568
3.2214783073009152,-0.10266133367874541
3.2234792255042075,-0.09765903817051447
3.2254801437075002,-0.5164356751893933
3.2274810619107925,-1.1317180227017143
3.2294819801140853,-1.1374763975029576
3.2314828983173776,-1.1374763975029576
3.2334838165206703,-1.1374763975029576
3.2354847347239626,-1.1374763975029576
3.2374856529272553,-1.1374763975029576
3.2394865711305476,-1.1374763975029576
3.2414874893338403,-1.1374763975029576
3.2434884075371326,-1.1374763975029576
3.245489325740425,-1.13483597198434
3.2474902439437177,-1.1298336764761079
3.24949116214701,-1.1290097139029236
3.2514920803503027,-1.1290097139029236
3.253492998553595,-1.1290097139029236
3.2554939167568877,-0.9601207944274712
3.25749483496018,-0.5849486313101528
3.2594957531634727,-0.49400844390038356
3.261496671366765,-0.49368307231608477
3.2634975895700578,-0.4886807768078536
3.26549850777335,-0.4855417603003498
3.267499425976643,-0.4855417603003498
3.269500344179935,-0.4889429467175055
3.2715012623832274,-0.49394524222573644
3.27350218058652,-0.869379575252786
3.2755030987898124,-1.1389511032447384
3.277504016993105,-1.1439533987529704
3.2795049351963974,-1.1489556942612014
3.28150585339969,-1.1539579897694332
3.2835067716029824,-1.1544097647030251
3.285507689806275,-1.1554958971858622
3.2875086080095675,-1.1604981926940925
3.28950952621286,-1.1718419179588815
3.2915104444161525,-1.1889330942786702
3.2935113626194448,-1.2060242705984594
3.2955122808227375,-1.2231154469182517
3.29751319902603,-1.2402066232380384
3.2995141172293225,-1.25729779955783
3.301515035432615,-1.2743889758776188
3.3035159536359076,-1.2914801521974115
3.3055168718392,-1.3085713285172005
3.3075177900424926,-1.3256625048369934
3.309518708245785,-1.3427536811567813
3.3115196264490776,-1.3598448574765718
3.31352054465237,-1.37693603379636
3.3155214628556626,-1.3940272101161528
3.317522381058955,-1.4111183864359418
3.319523299262247,-1.42820956275573
3.32152421746554,-1.4453007390755206
3.3235251356688322,-1.4623919153953087
3.325526053872125,-1.4794830917151014
3.3275269720754173,-1.4965742680348904
3.32952789027871,-1.5100104759044477
3.3315288084820023,-1.5100104759044477
3.333529726685295,-1.5100104759044477
3.3355306448885873,-1.5100104759044477
3.33753156309188,-1.514156037600788
3.3395324812951723,-1.517795985899944
3.341533399498465,-1.5127936903917119
3.3435343177017574,-1.5077913948834814
3.3455352359050496,-1.502789099375251
3.3475361541083424,-1.4977868038670192
3.3495370723116347,-1.49307710870438
3.3515379905149274,-1.49307710870438
3.3535389087182197,-1.4912466009423593
3.3555398269215124,-1.4862443054341272
3.3575407451248047,-1.484610425104346
3.3595416633280974,-1.484610425104346
3.3615425815313897,-1.4895167476992237
3.3635434997346825,-1.491635174201304
3.3655444179379748,-1.4866328786930731
3.367545336141267,-1.4816305831848426
3.36954625434456,-1.4766282876766113
3.371547172547852,-1.4761437415043122
3.373548090751145,-1.4761437415043122
3.375549008954437,-1.4761437415043122
3.37754992715773,-1.478735010164871
3.379550845361022,-1.483737305673102
3.381551763564315,-1.4887396011813336
3.383552681767607,-1.4611672854155473
3.3855535999709,-1.2210571010204103
3.387554518174192,-1.0844736005011413
3.389555436377485,-1.079471304992909
3.391556354580777,-1.0707284066666372
3.3935572727840695,-1.0610000303764147
3.3955581909873622,-1.0559977348681826
3.3975591091906545,-1.054623683645286
3.3995600273939472,-1.0596259791535179
3.4015609455972395,-1.0646282746617488
3.4035618638005323,-1.069630570169981
3.4055627820038246,-1.0697429287026865
3.4075637002071173,-1.0697429287026865
3.4095646184104096,-1.0697429287026865
3.4115655366137023,-1.0667794724025352
3.4135664548169946,-1.0617771768943043
3.415567373020287,-1.0567748813860733
3.4175682912235796,-1.052809561502619
3.419569209426872,-1.052809561502619
3.4215701276301647,-0.9807128363488665
3.423571045833457,-0.840648562118401
3.4255719640367497,-0.8198552111593049
3.427572882240042,-0.8274511161308618
3.4295738004433347,-0.8524625936720185
3.431574718646627,-0.8709151418663927
3.4335756368499197,-0.8809197328828569
3.435576555053212,-0.8834758895019414
3.4375774732565048,-0.8832160603950547
3.439578391459797,-0.8782137648868238
3.4415793096630893,-0.8732114693785933
3.443580227866382,-0.8682091738703617
3.4455811460696744,-0.8698781662416164
3.447582064272967,-0.8748804617498485
3.4495829824762594,-0.8701356545457359
3.451583900679552,-0.8637241957731343
3.4535848188828444,-0.853719604756674
3.455585737086137,-0.8496091551018061
3.4575866552894294,-0.8496091551018061
3.459587573492722,-0.8271842646156717
3.4615884916960145,-0.8062551470962129
3.463589409899307,-0.8012528515879809
3.4655903281025995,-0.7988090535016028
3.4675912463058918,-0.7988090535016028
3.4695921645091845,-0.8029054583398838
3.471593082712477,-0.802851619876291
3.4735940009157695,-0.7678355513186668
3.475594919119062,-0.8304660700918562
3.4775958373223546,-1.020553299404648
3.479596755525647,-1.0660350971233516
3.4815976737289396,-1.0610328016151196
3.483598591932232,-1.0560305061068886
3.4855995101355246,-1.054590912406581
3.487600428338817,-1.059593207914812
3.489601346542109,-1.0645955034230425
3.491602264745402,-1.069597798931274
3.493603182948694,-1.0648857629658686
3.495604101151987,-1.0612762451026527
3.4976050193552792,-1.0612762451026527
3.499605937558572,-1.0642069301640977
3.5016068557618643,-1.0692092256723278
3.503607773965157,-1.0697429287026865
3.5056086921684493,-1.0687387243166162
3.507609610371742,-1.0637364288083844
3.5096105285750343,-1.063818356905152
3.511611446778327,-1.0688206524133843
3.5136123649816193,-1.0697429287026865
3.5156132831849116,-1.0697429287026865
3.5176142013882044,-1.0697429287026865
3.5196151195914966,-1.0675893901591331
3.5216160377947894,-1.062587094650901
3.5236169559980817,-1.064967691062635
3.5256178742013744,-1.0695158708345072
3.5276187924046667,-1.0645135753262762
3.5296197106079594,-1.0648061756718699
3.5316206288112517,-1.0748107666883318
3.5336215470145445,-1.246656120055643
3.5356224652178367,-1.5017731909754193
3.537623383421129,-1.5100104759044477
3.5396243016244218,-1.5113868679301103
3.541625219827714,-1.5163891634383413
3.543626138031007,-1.5155628600623898
3.545627056234299,-1.5105605645541589
3.547627974437592,-0.7932051716826891
3.549628892640884,-0.10406893640793569
3.551629810844177,0.11269720228211844
3.553630729047469,0.3294633409721248
3.555631647250762,0.5462294796621792
3.557632565454054,0.7629956183521851
3.559633483657347,0.9531952061976345
3.561634401860639,0.9481929106894045
3.5636353200639315,0.943190615181174
3.565636238267224,0.9381883196729421
3.5676371564705165,0.93686108450534
3.5696380746738092,0.9366504122565131
3.5716389928771015,0.9316481167482826
3.5736399110803942,0.9283944009053058
3.5756408292836865,0.9283944009053058
3.5776417474869793,0.6128916410636305
3.5796426656902716,0.1326712722734631
3.5816435838935643,0.11559277530205492
3.5836445020968566,0.11423276889574474
3.585645420300149,0.10923047338751424
3.5876463385034416,0.1071260917020207
3.589647256706734,0.1071260917020207
3.5916481749100266,0.12486937665868991
3.593649093113319,0.14002139295479177
3.5956500113166117,0.13501909744655993
3.597650929519904,0.1350354830659155
3.5996518477231967,0.1400377785741469
3.601652765926489,0.14099282610215624
3.6036536841297817,0.14099282610215624
3.605654602333074,0.14099282610215624
3.6076555205363667,0.14099282610215624
3.609656438739659,0.14099282610215624
3.6116573569429513,0.14099282610215624
3.613658275146244,0.14118711273162976
3.6156591933495363,0.1461894082398607
3.617660111552829,0.16158486802350858
3.6196610297561214,0.19660093658112476
3.621661947959414,0.20872629490242733
3.6236628661627064,0.20872629490242733
3.625663784365999,0.20872629490242733
3.6276647025692914,0.20872629490242733
3.629665620772584,0.20872629490242733
3.6316665389758764,0.20872629490242733
3.633667457179169,0.20872629490242733
3.6356683753824615,0.20872629490242733
3.6376692935857537,0.20872629490242733
3.6396702117890465,0.20872629490242733
3.6416711299923388,0.20872629490242733
3.6436720481956315,0.20872629490242733
3.645672966398924,0.20872629490242733
3.6476738846022165,0.20815982063336147
3.649674802805509,0.20315752512513052
3.6516757210088016,0.20236399298788843
3.653676639212094,0.20736628849611938
3.6556775574153866,0.20872629490242733
3.657678475618679,0.21406332520602556
3.659679393821971,0.3641321904529531
3.661680312025264,0.46272680290344326
3.663681230228556,0.46272680290344326
3.665682148431849,0.2382204097379561
3.667683066635141,-0.10693798032997659
3.669683984838434,-0.8306346078910574
3.6716849030417262,-1.2185934061105446
3.673685821245019,-0.6308236838932821
3.6756867394483113,-0.043053961676150276
3.677687657651604,0.5447157605411124
3.6796885758548963,0.6195301577045136
3.681689494058189,0.6235937913040868
3.6836904122614813,0.6235937913040868
3.6856913304647736,0.6211172219790004
3.6876922486680663,0.6161149264707686
3.6896931668713586,0.6070981542210223
3.6916940850746514,0.598193740503985
3.6936950032779436,0.598193740503985
3.6956959214812364,0.598193740503985
3.6976968396845287,0.598193740503985
3.6996977578878214,0.5945678370214145
3.7016986760911137,0.5900500876854862
3.7036995942944064,0.600054678701949
3.7057005124976987,0.5862673504176739
3.707701430700991,0.5262398043189029
3.7097023489042837,0.5018228906799882
3.711703267107576,0.49682059517175725
3.7137041853108688,0.4965935373035788
3.715705103514161,0.49528268775532824
3.717706021717454,0.49028039224709685
3.719706939920746,0.488126853703545
3.721707858124039,0.488126853703545
3.723708776327331,0.48374018932243734
3.725709694530624,0.47781561752489976
3.727710612733916,0.4678110265084392
3.729711530937209,0.46272680290344326
3.731712449140501,0.46272680290344326
3.7337133673437934,0.4667248940256048
3.735714285547086,0.4685249713516777
3.7377152037503785,0.4435134938105234
3.739716121953671,0.4309316789500963
3.7417170401569635,0.4359339744583268
3.7437179583602562,0.33986976979648675
3.7457188765635485,0.20872629490242733
3.7477197947668413,0.20872629490242733
3.7497207129701335,0.20872629490242733
3.7517216311734263,0.20872629490242733
3.7537225493767186,0.20872629490242733
3.7557234675800113,0.20872629490242733
3.7577243857833036,0.20872629490242733
3.759725303986596,0.20872629490242733
3.7617262221898886,0.20872629490242733
3.763727140393181,0.20872629490242733
3.7657280585964736,0.20872629490242733
3.767728976799766,0.21309657366418122
3.7697298950030587,0.2171929785024611
3.771730813206351,0.2171929785024611
3.7737317314096437,0.2171929785024611
3.775732649612936,0.2171929785024611
3.7777335678162287,0.21321127299965115
3.779734486019521,0.21700337347852772
3.7817354042228133,0.297040101610222
3.783736322426106,0.43051267525525283
3.7857372406293983,0.6406090866009513
3.787738158832691,0.6997939437043916
3.7897390770359833,0.7000514320085123
3.791739995239276,0.7100560230249764
3.7937409134425684,0.7150606593359696
3.795741831645861,0.7100583638277378
3.7977427498491534,0.7050560683195068
3.799743668052446,0.700053772811275
3.8017445862557384,0.5907172164734127
3.803745504459031,0.6367022867867025
3.8057464226623234,1.1519387241344865
3.8077473408656157,1.3912085603369633
3.8097482590689085,1.4162200378781233
3.8117491772722008,1.423815942849671
3.8137500954754935,1.4279287333073043
3.8157510136787858,1.4279287333073043
3.8177519318820785,1.430356145774332
3.819752850085371,1.4353584412825628
3.8217537682886635,1.4403607367907947
3.823754686491956,1.4433593051324105
3.8257556046952486,1.4283524186077163
3.827756522898541,1.41946204970727
3.829757441101833,1.41946204970727
3.831758359305126,1.423038796331781
3.833759277508418,1.4279287333073043
3.835760195711711,1.4279287333073043
3.837761113915003,1.4279287333073043
3.839762032118296,1.4279287333073043
3.841762950321588,1.431116906672869
3.843763868524881,1.436119202181101
3.8457647867281732,1.4411214976893318
3.847765704931466,1.4461237931975637
3.8497666231347583,1.4511260887057942
3.851767541338051,1.4505291840007857
3.8537684595413433,1.4455268884925547
3.8557693777446356,1.683425014275012
3.8577702959479283,1.9114028179404805
3.8597712141512206,1.916405113448711
3.8617721323545133,1.9189963821092686
3.8637730505578056,1.9189963821092686
3.8657739687610984,1.9189963821092686
3.8677748869643906,1.9189963821092686
3.8697758051676834,1.9189963821092686
3.8717767233709757,1.9189963821092686
3.8737776415742684,1.9189963821092686
3.8757785597775607,1.915436021104111
3.8777794779808534,1.91062567142259
3.8797803961841457,1.915627966930821
3.881781314387438,1.9189963821092686
3.8837822325907307,1.9189963821092686
3.885783150794023,1.9189963821092686
3.8877840689973158,1.9189963821092686
3.889784987200608,1.9189963821092686
3.891785905403901,1.9189963821092686
3.893786823607193,1.9189963821092686
3.895787741810486,1.9189963821092686
3.897788660013778,1.9189963821092686
3.899789578217071,1.9189963821092686
3.901790496420363,1.9189963821092686
3.9037914146236554,1.9189963821092686
3.905792332826948,1.9189963821092686
3.9077932510302404,1.9189963821092686
3.909794169233533,1.9189963821092686
3.9117950874368255,1.9189963821092686
3.913796005640118,1.9189963821092686
3.9157969238434105,1.9530995375886557
3.9177978420467032,2.0381385612286
3.9197987602499955,2.062930003309844
3.9217996784532883,2.0630095906038464
3.9238005966565805,2.068011886112077
3.9258015148598733,1.4454262339731265
3.9278024330631656,-0.49046212771223585
3.929803351266458,-0.2333460112308341
3.9318042694697506,1.307361005304426
3.933805187673043,1.4119153015937762
3.9358061058763356,1.41946204970727
3.937807024079628,1.41946204970727
3.9398079422829206,1.4222288785751842
3.941808860486213,1.4272311740834152
3.9438097786895057,1.4279287333073043
3.945810696892798,1.4279287333073043
3.9478116150960907,1.4279287333073043
3.949812533299383,0.6431043823478411
3.9518134515026753,-1.0076531353683595
3.953814369705968,-1.369993017729269
3.9558152879092603,-1.3749953132375
3.957816206112553,-1.379997608745731
3.9598171243158453,-1.3849999042539618
3.961818042519138,-1.3900021997621939
3.9638189607224303,-1.3879493157375222
3.965819878925723,-1.3830102219039397
3.9678207971290154,-1.3830102219039397
3.969821715332308,-1.3830102219039397
3.9718226335356004,-1.3830102219039397
3.973823551738893,-1.3830102219039397
3.9758244699421854,-1.3830102219039397
3.9778253881454777,-1.3830102219039397
3.9798263063487704,-1.3817976860718073
3.9818272245520627,-1.376795390563577
3.9838281427553555,-1.3717930950553452
3.9858290609586478,-1.3667907995471142
3.9878299791619405,-1.3960953093587984
3.9898308973652328,-1.425343639904109
3.9918318155685255,-1.425343639904109
3.993832733771818,-1.1655379410465145
3.9958336519751105,-0.6152854351409922
3.997834570178403,-0.49400844390038356
3.9998354883816956,-0.49400844390038356
4.001836406584988,-0.49400844390038356
4.003837324788281,-0.49400844390038356
4.005838242991572,-0.49400844390038356
4.007839161194865,-0.4904972397532865
4.009840079398158,-0.4855417603003498
4.011840997601451,-0.4855417603003498
4.0138419158047425,-0.48712648377207324
4.015842834008035,-0.49212877928030463
4.017843752211328,-0.49400844390038356
4.019844670414621,-0.49400844390038356
4.0218455886179125,-0.4893479055958023
4.023846506821205,-0.4867379105131284
4.025847425024498,-0.4917402060213598
4.02784834322779,-0.6799243626863987
4.029849261431083,-1.0200804572462208
4.031850179634375,-1.06547096365705
4.033851097837668,-1.0620838220564868
4.03585201604096,-1.067086117564716
4.037852934244253,-0.5068266798399925
4.039853852447545,0.6937242421358496
4.041854770650838,0.9622611353054413
4.04385568885413,1.0200836451998434
4.045856607057423,1.7104004253357719
4.047857525260715,2.066085405436676
4.049858443464007,1.9010096536650707
4.0518593616673,1.7359339018934223
4.053860279870593,1.5708581501217873
4.0558611980738855,1.4057823983501088
4.057862116277177,1.2407066465785173
4.05986303448047,1.0756308948068827
4.061863952683763,1.006848746368045
4.0638648708870555,0.9968441553515821
4.065865789090347,0.9961278697055769
4.06786670729364,0.9961278697055769
4.069867625496933,0.9961278697055769
4.0718685437002256,1.0015632137252872
4.073869461903517,1.0115678047417456
4.07587038010681,1.0130612369056449
4.077871298310103,1.0130612369056449
4.079872216513395,1.0130612369056449
4.0818731347166874,1.0107321381547365
4.08387405291998,1.0057298426465051
4.085874971123273,1.016195571807625
4.087875889326565,1.0295919860301779
4.0898768075298575,1.0245896905219465
4.09187772573315,1.0370521244413857
4.093878643936443,1.0770704885072364
4.095879562139735,1.0927398222143405
4.0978804803430275,1.0977280729059835
4.09988139854632,1.0977280729059835
4.101882316749612,1.0961761206729665
4.103883234952905,1.0911738251647338
4.105884153156198,1.086171529656502
4.10788507135949,1.0811692341482706
4.109885989562782,1.1178168422329082
4.111886907766075,1.1508549324543305
4.113887825969368,1.1608595234707955
4.11588874417266,1.1681628280967566
4.117889662375952,1.1731651236049858
4.119890580579245,1.173928225306288
4.121891498782538,1.173928225306288
4.1238924169858295,1.173928225306288
4.125893335189122,1.173928225306288
4.127894253392415,1.173928225306288
4.129895171595708,1.173928225306288
4.131896089799,1.173928225306288
4.133897008002292,1.173928225306288
4.135897926205585,1.173928225306288
4.137898844408878,1.173928225306288
4.13989976261217,1.1773902725953258
4.141900680815462,1.1823925681035572
4.143901599018755,1.132395361851645
4.145902517222048,1.0992636395196498
4.14790343542534,1.1042659350278785
4.149904353628632,1.1092682305361108
4.151905271831925,1.1142705260443435
4.153906190035217,1.0501020998547483
4.15590710823851,0.9938338829961388
4.1579080264418025,0.9838292919796761
4.159908944645095,0.9791945025055093
4.161909862848387,0.9791945025055093
4.16391078105168,0.9665260779427784
4.1659116992549725,0.9522776115138587
4.167912617458265,0.9422730204973964
4.169913535661557,0.9345647569931383
4.17191445386485,0.9295624614849056
4.173915372068143,0.9245601659766738
4.175916290271434,0.9195578704684446
4.177917208474727,0.9145555749602132
4.17991812667802,0.9095532794519814
4.181919044881313,0.9045509839437491
4.1839199630846045,0.03468760934456361
4.185920881287897,-1.2258908587297404
4.18792179949119,-1.2854291770505835
4.189922717694483,-1.3222242557093908
4.1919236358977745,-1.3172219602011603
4.193924554101067,-1.3122196646929285
4.19592547230436,-1.307217369184697
4.197926390507652,-1.3205950569851392
4.1999273087109446,-1.3310795125683699
4.201928226914237,-1.3260772170601385
4.20392914511753,-1.321074921551907
4.205930063320822,-1.316072626043678
4.207930981524115,-1.197496921193417
4.209931899727407,-1.0789516467791422
4.2119328179307,-1.0839539422873736
4.213933736133992,-1.0843963540099057
4.215934654337285,-1.0793940585016744
4.217935572540577,-1.0782096123027203
4.219936490743869,-1.0782096123027203
4.221937408947162,-1.0782096123027203
4.223938327150455,-1.0801009809366242
4.225939245353747,-1.0851032764448556
4.227940163557039,-1.0832470198524229
4.229941081760332,-1.0782447243441902
4.231941999963625,-1.0782096123027203
4.2339429181669175,-1.0767068169277612
4.235943836370209,-1.0717045214195307
4.237944754573502,-1.0697429287026865
4.239945672776795,-1.0697429287026865
4.2419465909800875,-1.0743215389105032
4.243947509183379,-1.0425545045903277
4.245948427386672,-0.8824810483268821
4.247949345589965,-0.8046236075691937
4.249950263793257,-0.7996213120609645
4.251951181996549,-0.8029990904504727
4.253952100199842,-0.7753471873906714
4.255953018403135,-0.5552461850284334
4.257953936606427,-0.43700521497364253
4.2599548548097195,-0.4420075104818739
4.261955773013012,-0.4394068786102554
4.263956691216305,-0.434404583102024
4.265957609419597,-0.4294022875937935
4.2679585276228895,-0.43564989017286915
4.269959445826182,-0.4606613677140259
4.271960364029474,-0.4720212835312598
4.273961282232767,-0.4770235790394912
4.27596220043606,-0.9028436915774121
4.277963118639352,-1.203723456547622
4.279964036842644,-1.1987211610393929
4.281964955045937,-1.1967431827031945
4.28396587324923,-1.1967431827031945
4.285966791452522,-1.1967431827031945
4.287967709655814,-1.197841019199854
4.289968627859107,-1.2028433147080855
4.2919695460624,-1.2078456102163175
4.2939704642656915,-1.212847905724548
4.295971382468984,-1.1802873392671245
4.297972300672277,-1.1466523443407062
4.29997321887557,-1.1516546398489376
4.301974137078862,-1.1544097647030251
4.303975055282154,-1.1544097647030251
4.305975973485447,-1.1544097647030251
4.30797689168874,-1.1544097647030251
4.309977809892032,-1.1544097647030251
4.311978728095324,-1.1525511673078281
4.313979646298617,-1.1475488717995954
4.31598056450191,-1.1425465762913638
4.317981482705202,-1.1375442807831346
4.319982400908494,-1.1325419852749032
4.321983319111787,-1.1304797380391758
4.323984237315079,-1.1354820335474063
4.325985155518372,-1.1374763975029576
4.327986073721664,-1.1374763975029576
4.329986991924957,-1.1420222364720682
4.331987910128249,-1.0237391319672944
4.333988828331542,-0.45847973953715004
4.3359897465348345,-0.18658847600542838
4.337990664738127,-0.1815861804971972
4.339991582941419,-0.18489841640929416
4.341992501144712,-0.18851495668080198
4.3439934193480045,-0.1835126611725708
4.345994337551296,-0.17851036566434164
4.347995255754589,-0.17350807015611025
4.349996173957882,-0.17227446709909677
4.351997092161175,-0.1725787714585143
4.353998010364466,-0.17758106696674325
4.355998928567759,-0.17889893892328645
4.357999846771052,-0.17389664341505506
4.360000764974345,-0.17227446709909677
4.3620016831776365,-0.17227446709909677
4.364002601380929,-0.1673564404903949
4.366003519584222,-0.1623541449821635
4.368004437787514,-0.15735184947393432
4.3700053559908065,-0.155341099899029
4.372006274194099,-0.155341099899029
4.374007192397392,-0.1734589132980573
4.376008110600684,-0.18814276904121163
4.378009028803977,-0.18314047353297913
4.380009947007269,0.3893098649908455
4.382010865210562,1.484812581293514
4.384011783413854,1.6776034377990965
4.386012701617147,1.6826057333073279
4.388013619820439,1.6876080288155606
4.390014538023732,1.6881815254929156
4.392015456227024,1.6831792299846864
4.394016374430317,1.6819292413083202
4.396017292633609,1.6819292413083202
4.398018210836901,1.6819292413083202
4.400019129040194,1.6801034151518284
4.402020047243487,1.6751011196435974
4.4040209654467795,1.6734625577082864
4.406021883650071,1.6734625577082864
4.408022801853364,1.678364198697635
4.410023720056657,1.6833664942058673
4.4120246382599495,1.6883687897140982
4.414025556463241,1.6933710852223283
4.416026474666534,1.698373380730561
4.418027392869827,1.5950620507090814
4.420028311073119,1.4800092540198109
4.422029229276411,1.3649564573304898
4.424030147479704,1.2499036606411527
4.426031065682997,1.1348508639518013
4.428031983886289,1.0197980672625255
4.4300329020895814,0.9205878236849272
4.432033820292874,0.9255901191931586
4.434034738496167,0.9305924147013904
4.436035656699459,0.9355947102096209
4.4380365749027515,0.4325117208161049
4.440037493106044,-0.24279817279512939
4.442038411309336,-0.9181080664060639
4.444039329512629,-1.3473340469666666
4.4460402477159215,-1.342331751458434
4.448041165919214,-1.3574135436716106
4.450042084122506,-1.3824250212127565
4.452043002325799,-1.3878954772739345
4.454043920529092,-1.390056038225781
4.456044838732384,-1.3850537427175482
4.458045756935676,-0.7882965082851026
4.460046675138969,0.217164888869402
4.462047593342262,0.31879318170286775
4.4640485115455535,0.31879318170286775
4.466049429748846,0.31879318170286775
4.468050347952139,0.31879318170286775
4.470051266155432,0.31879318170286775
4.4720521843587235,0.31879318170286775
4.474053102562016,0.318149460942565
4.476054020765309,0.31314716543433363
4.478054938968602,0.31250812627956526
4.480055857171894,0.31751042178779443
4.482056775375186,0.31879318170286775
4.484057693578479,0.31879318170286775
4.486058611781772,0.31879318170286775
4.488059529985064,0.31700012678508305
4.490060448188356,0.31199783127685166
4.492061366391649,0.3136574604370481
4.494062284594941,0.3186597559452786
4.496063202798234,0.31879318170286775
4.498064121001526,0.31879318170286775
4.500065039204819,0.31879318170286775
4.502065957408111,0.31879318170286775
4.504066875611404,0.31879318170286775
4.5060677938146965,0.31879318170286775
4.508068712017989,0.3177772733029727
4.510069630221281,0.3127749777947417
4.512070548424574,0.3128803139191576
4.5140714666278665,0.317882609427389
4.516072384831158,0.31879318170286775
4.518073303034451,0.31879318170286775
4.520074221237744,0.31879318170286775
4.522075139441037,0.31879318170286775
4.524076057644328,0.31879318170286775
4.526076975847621,0.31879318170286775
4.528077894050914,0.3429081317851974
4.530078812254207,0.8481399781166976
4.5320797304574985,1.1721515560078557
4.534080648660791,1.1671492604996248
4.536081566864084,1.1886635787102806
4.538082485067376,1.2236796472678848
4.5400834032706685,1.2247283269064915
4.542084321473961,1.2247283269064915
4.544085239677254,1.2247283269064915
4.546086157880546,1.2218023234505773
4.5480870760838386,1.2168000279423459
4.550087994287131,1.2028699106894254
4.552088912490424,1.1878630241647286
4.554089830693716,1.172856137640041
4.556090748897009,0.5311039924637995
4.558091667100301,-0.7194698845943699
4.560092585303594,-0.9471340206888121
4.562093503506886,-0.9433536242237741
4.564094421710179,-0.9483559197320055
4.566095339913471,-0.9533582152402376
4.568096258116763,-0.9583605107484678
4.570097176320056,-0.8970010478765413
4.572098094523349,-0.8155200444390198
4.574099012726641,-0.8105177489307884
4.576099930929933,-0.8759268005856726
4.578100849133226,-1.0710163254067468
4.580101767336519,-0.3096304325303332
4.5821026855398115,0.9459457400357394
4.584103603743103,0.982825087593608
4.586104521946396,0.9791945025055093
4.588105440149689,0.9791945025055093
4.590106358352981,0.9791945025055093
4.592107276556273,0.9791945025055093
4.594108194759566,0.9791945025055093
4.596109112962859,0.9791945025055093
4.598110031166151,0.9791945025055093
4.600110949369443,0.8455791398918246
4.602111867572736,0.5804574779555622
4.604112785776029,0.5020476077453879
4.606113703979321,0.46762610309001884
4.6081146221826135,0.4376123300406305
4.610115540385906,0.35002183138710086
4.612116458589198,0.1849460796155391
4.614117376792491,-0.27008959222898965
4.6161182949957835,-0.8069520375193109
4.618119213199076,-0.7990912874349472
4.620120131402368,-0.7912305373505872
4.622121049605661,-0.7833697872662237
4.624121967808954,-0.7755090371818587
4.626122886012246,-0.767648287097493
4.628123804215538,-0.7597875370131331
4.630124722418831,-0.7519267869287694
4.632125640622124,-0.7440660368444059
4.634126558825416,-0.736205286760041
4.636127477028708,-0.7283445366756791
4.638128395232001,-0.7204837865913152
4.640129313435294,-0.7151089690430998
4.6421302316385855,-0.7201112645513301
4.644131149841878,-0.7226089011012979
4.646132068045171,-0.7226089011012979
4.648132986248464,-0.7226089011012979
4.650133904451756,-0.7214525445355209
4.652134822655048,-0.7114479535190557
4.654135740858341,-0.7289524765937443
4.656136659061634,-0.7839777271842892
4.658137577264926,-0.7988090535016028
4.660138495468218,-0.7989986585255464
4.662139413671511,-0.8040009540337791
4.664140331874803,-0.8055482246612644
4.666141250078096,-0.8005459291530328
4.668142168281388,-0.7955436336448016
4.670143086484681,-0.7905413381365702
4.672144004687973,-0.6190236971563938
4.674144922891266,-0.4406084906961074
4.676145841094558,-0.2621932842358554
4.678146759297851,-0.08377807777560342
4.680147677501143,0.09463712868456975
4.682148595704436,0.2730523351448628
4.6841495139077285,0.4514675416051528
4.68615043211102,0.6298827480653255
4.688151350314313,0.8082979545256008
4.690152268517606,0.9867131609858997
4.6921531867208985,1.0255541012610192
4.69415410492419,1.0305563967692484
4.696155023127483,1.0355586922774798
4.698155941330776,1.0363615876257808
4.700156859534069,1.031359292117548
4.70215777773736,1.0227193891129254
4.704158695940653,1.0130612369056449
4.706159614143946,1.0130612369056449
4.708160532347238,1.0113501100846265
4.7101614505505305,1.0063478145763938
4.712162368753823,1.001345519068162
4.714163286957116,0.9963432235599305
4.716164205160408,0.9913409280517014
4.7181651233637005,0.9876611861055431
4.720166041566993,0.9876611861055431
4.722166959770286,0.9876611861055431
4.724167877973578,0.9876611861055431
4.726168796176871,0.9832628177106111
4.728169714380163,0.9791945025055093
4.730170632583456,0.9791945025055093
4.732171550786748,0.9791945025055093
4.734172468990041,0.9791945025055093
4.736173387193333,1.0393414295453143
4.738174305396625,1.1056493494618338
4.740175223599918,1.1006470539536024
4.742176141803211,1.0977280729059835
4.744177060006503,1.0977280729059835
4.746177978209795,1.0977280729059835
4.748178896413088,1.0894158822883346
4.750179814616381,0.8242942203520722
4.7521807328196735,0.6489938421041885
4.754181651022965,0.6489938421041885
4.756182569226258,0.6489938421041885
4.758183487429551,0.6489938421041885
4.760184405632843,0.6489938421041885
4.762185323836135,0.6489938421041885
4.764186242039428,0.6489938421041885
4.766187160242721,0.6461497667450384
4.768188078446013,0.6411474712368075
4.770188996649305,0.6449091412797325
4.772189914852598,0.4636397159814387
4.774190833055891,-0.5468239766815621
4.776191751259183,-1.059954051664081
4.7781926694624755,-1.0572605079288795
4.780193587665768,-1.0545669641936781
4.78219450586906,-1.0518734204584774
4.784195424072353,-1.0491798767232754
4.7861963422756455,-1.0464863329880734
4.788197260478938,-1.0437927892528718
4.79019817868223,-1.0410992455176715
4.792199096885523,-1.03840570178247
4.7942000150888155,-1.035712158047268
4.796200933292108,-1.0330186143120659
4.7982018514954,-1.0303250705768656
4.800202769698693,-1.027631526841664
4.802203687901986,-1.0249379831064627
4.804204606105278,-1.0222444393712604
4.80620552430857,-1.0195508956360597
4.808206442511863,-1.0168573519008581
4.810207360715156,-1.0141638081656565
4.8122082789184475,-1.0114702644304563
4.81420919712174,-1.0087767206952543
4.816210115325033,-1.0060831769600522
4.818211033528326,-1.0033896332248506
4.8202119517316175,-1.0044485763832662
4.82221286993491,-1.0094508718914987
4.824213788138203,-1.0383153107834167
4.826214706341496,-0.899547841283822
4.828215624544788,0.761214267448254
4.83021654274808,1.741196026508557
4.832217460951373,1.741196026508557
4.834218379154665,1.6209829301243674
4.836219297357958,1.4534060305986167
4.83822021556125,1.285829131072866
4.840221133764543,1.172266255343327
4.842222051967835,1.167263959835097
4.844222970171128,1.1686614190856432
4.84622388837442,1.1736637145938746
4.848224806577713,1.178666010102106
4.850225724781005,1.1798481154982947
4.852226642984298,1.1698435244818293
4.8542275611875905,1.1654615417062542
4.856228479390882,1.1654615417062542
4.858229397594175,1.1698107532431252
4.860230315797468,1.173928225306288
4.8622312340007605,1.173928225306288
4.864232152204052,1.173928225306288
4.866233070407345,1.173928225306288
4.868233988610638,1.1778888635842155
4.870234906813931,1.181898658720196
4.872235825017222,1.176896363211967
4.874236743220515,1.1352792308577868
4.876237661423808,1.0402356162013913
4.878238579627101,1.0130612369056449
4.8802394978303925,1.013168913832824
4.882240416033685,1.0181712093410553
4.884241334236978,1.0215279205056786
4.88624225244027,1.0215279205056786
4.8882431706435625,1.0215279205056786
4.890244088846855,1.0215279205056786
4.892245007050148,1.0262493196821443
4.89424592525344,1.0299946041057124
4.896246843456733,1.0299946041057124
4.898247761660025,1.032789522606803
4.900248679863318,1.0377918181150356
4.90224959806661,1.0341284617882276
4.904250516269903,1.0291261662799962
4.906251434473195,1.0241238707717635
4.908252352676487,1.0263406109899686
4.91025327087978,1.036345202006431
4.912254189083073,1.0345170350471724
4.914255107286365,1.0328737915063413
4.916256025489657,1.0628875645557239
4.91825694369295,1.0868480216555163
4.920257861896243,1.1018549081802105
4.922258780099535,1.1097504359056463
4.924259698302827,1.1147527314138754
4.92626061650612,1.1197550269221082
4.928261534709413,1.1280157198788512
4.930262452912705,1.1430226064035387
4.932263371115997,1.1516952806468685
4.93426428931929,1.1566975761551
4.936265207522583,1.1664048852204445
4.938266125725875,1.1776501017022132
4.940267043929167,1.1926569882269074
4.94226796213246,1.2048853418698644
4.944268880335753,1.2148899328863267
4.946269798539045,1.509779583581683
4.948270716742337,1.792848180315124
4.95027163494563,1.7978504758233553
4.952272553148922,1.8028527713315854
4.954273471352215,1.8078550668398181
4.9562743895555075,1.8128573623480495
4.9582753077588,1.817396178908862
4.960276225962092,1.817396178908862
4.962277144165385,1.6732963607119453
4.9642780623686775,1.3131310841191928
4.96627898057197,1.197177078365594
4.968279898775262,1.182469814594794
4.970280816978555,1.1874721101030254
4.972281735181848,0.734435483819321
4.97428265338514,-0.6812141450105262
4.976283571588432,-1.2052098663032285
4.978284489791725,-1.2052098663032285
4.980285407995018,-1.209898494240987
4.9822863261983095,-1.2161250295951707
4.984287244401602,-1.2261296206116357
4.986288162604895,-1.233372064365715
4.988289080808188,-1.2383743598739463
4.9902899990114795,-1.2390766007033638
4.992290917214772,-1.2390766007033638
4.994291835418065,-1.2390766007033638
4.996292753621358,-1.2390766007033638
4.99829367182465,-1.2390766007033638
5.000294590027942,-1.2429880821232318
5.002295508231235,-1.2475432843033978
5.004296426434527,-1.2475432843033978
5.00629734463782,-1.2475432843033978
5.008298262841112,-1.2475432843033978
5.010299181044405,-1.2440203761424748
5.012300099247697,-1.2383743598739307
5.01430101745099,-1.1783468137751543
5.016301935654282,-1.1374763975029576
5.018302853857575,-1.1374763975029576
5.020303772060867,-1.1343420626009817
5.02230469026416,-1.129339767092749
5.0243056084674524,-1.1336819562213296
5.026306526670744,-1.13989210595616
5.028307444874037,-1.1498966969726228
5.03030836307733,-0.6080031977398797
5.0323092812806225,0.387453608398423
5.034310199483914,0.5261766026442554
5.036311117687207,0.5219935881036806
5.0383120358905,0.5219935881036806
5.0403129540937925,0.5219935881036806
5.042313872297084,0.5219935881036806
5.044314790500377,0.518098492303166
5.04631570870367,0.5130961967949346
5.048316626906963,0.5080939012867018
5.050317545110254,0.5030916057784718
5.052318463313547,0.49808931027024084
5.05431938151684,0.5491913754271209
5.056320299720132,0.623720194653381
5.0583212179234245,0.6387270811780792
5.060322136126717,0.6474138002379926
5.06232305433001,0.6424115047297612
5.064323972533302,0.6405271585041543
5.0663248907365945,0.6405271585041543
5.068325808939887,0.6358713018051017
5.07032672714318,0.6272946004751163
5.072327645346472,0.6072854184421996
5.074328563549765,0.5872762364092745
5.076329481753057,0.567267054376349
5.078330399956349,0.5472578723434278
5.080331318159642,0.5312631670520185
5.082332236362935,0.5362654625602499
5.084333154566227,0.5365861525390145
5.086334072769519,0.531583857030784
5.088334990972812,0.5304602717037143
5.090335909176105,0.530045949614355
5.092336827379397,0.5250436541061236
5.094337745582689,0.520041358597894
5.096338663785982,0.5150390630896613
5.098339581989275,0.5135269045036464
5.100340500192567,0.5135526533340586
5.102341418395859,0.51855494884229
5.104342336599152,0.5235572443505223
5.106343254802445,0.5285595398587546
5.108344173005737,0.5304602717037143
5.110345091209029,0.5304602717037143
5.112346009412322,0.5350997427834132
5.114346927615615,0.5412771212795415
5.116347845818907,0.5512817122960021
5.118348764022199,0.5477213512908401
5.120349682225492,0.5327144647661459
5.122350600428785,0.5304602717037143
5.124351518632077,0.5304602717037143
5.1263524368353695,0.5304602717037143
5.128353355038662,0.5281358545583341
5.130354273241954,0.523133559050105
5.132355191445247,0.5258559126654885
5.1343561096485395,0.5300623352337075
5.136357027851832,0.5250600397254761
5.138357946055124,0.5200577442172469
5.140358864258417,0.5150554487090155
5.1423597824617095,0.5691069253494581
5.144360700665002,0.6489938421041885
5.146361618868294,0.6489938421041885
5.148362537071587,0.6489938421041885
5.15036345527488,0.6489938421041885
5.1523643734781714,0.6489938421041885
5.154365291681464,0.6489938421041885
5.156366209884757,0.6489938421041885
5.15836712808805,0.6489938421041885
5.1603680462913415,0.6489938421041885
5.162368964494634,0.6489938421041885
5.164369882697927,0.6489938421041885
5.16637080090122,0.6489938421041885
5.1683717191045115,0.616494604679199
5.170372637307804,0.40539773423183556
5.172373555511097,0.19430086378444633
5.174374473714389,-0.01679600666287917
5.176375391917682,-0.22789287711025552
5.178376310120974,-0.43898974755762343
5.180377228324267,-0.6500866180050424
5.182378146527559,-0.8611834884523464
5.184379064730852,-1.0722803588997099
5.186379982934144,-1.1374763975029576
5.188380901137437,-1.1374763975029576
5.190381819340729,-1.1324811244030197
5.192382737544022,-1.1305405989110597
5.194383655747314,-1.1355428944192911
5.196384573950606,-1.1374763975029576
5.198385492153899,-1.1374763975029576
5.200386410357192,-1.1374763975029576
5.2023873285604845,-1.136334085753766
5.204388246763776,-1.1313317902455369
5.206389164967069,-1.1584921247247224
5.208390083170362,-1.2135173753152675
5.2103910013736545,-1.217925106921248
5.212391919576946,-1.1976470446773972
5.214392837780239,-1.0912648935356768
5.216393755983532,-0.9848827423939565
5.218394674186825,-0.8785005912522359
5.220395592390116,-0.7721184401105414
5.222396510593409,-0.6657362889687952
5.224397428796702,-0.559354137827075
5.226398346999994,-0.4529719866853912
5.2283992652032865,-0.3465898355436432
5.230400183406579,-0.2402076844019141
5.232401101609872,-0.13382553326019364
5.234402019813164,-0.027443382118520487
5.2364029380164565,0.07893876902320818
5.238403856219749,0.1853209201649566
5.240404774423042,0.2917030713066877
5.242405692626334,0.3980852224483611
5.244406610829627,0.5044673735900811
5.246407529032919,0.6108495247318078
5.248408447236211,0.7172316758735091
5.250409365439504,0.8236138270152424
5.252410283642797,0.9299959781569624
5.254411201846089,1.036378129298683
5.256412120049381,1.1427602804403603
5.258413038252674,1.2491424315821087
5.260413956455967,1.3555245827238442
5.262414874659259,1.4619067338655647
5.264415792862551,1.4833823508037929
5.266416711065844,1.4787288349075074
5.268417629269137,1.4787288349075074
5.2704185474724285,1.4787288349075074
5.272419465675721,1.4787288349075074
5.274420383879014,1.4787288349075074
5.276421302082307,1.4787288349075074
5.278422220285599,1.4737663330462758
5.280423138488891,1.4732583788463316
5.282424056692184,1.4832629698627944
5.284424974895477,1.4871955185075412
5.286425893098769,1.4871955185075412
5.288426811302061,1.4826215899052544
5.290427729505354,1.4787288349075074
5.292428647708647,1.4787288349075074
5.294429565911939,1.4549018035653027
5.296430484115231,1.4098811439912087
5.298431402318524,1.4067140378505445
5.300432320521816,1.4109953661072363
5.302433238725109,1.4109953661072363
5.3044341569284015,1.4132542407752031
5.306435075131694,1.4182565362834358
5.308435993334986,1.41946204970727
5.310436911538279,1.41946204970727
5.3124378297415715,1.41946204970727
5.314438747944864,1.41946204970727
5.316439666148156,1.41946204970727
5.318440584351449,1.41946204970727
5.320441502554742,1.41946204970727
5.322442420758033,1.41946204970727
5.324443338961326,1.4209437778573468
5.326444257164619,1.4259460733655782
5.328445175367912,1.4490661822728423
5.3304460935712035,1.4840822508304465
5.332447011774496,0.0515694788835499
5.334447929977789,-1.1819961252853903
5.336448848181082,-1.1920007163018531
5.3384497663843735,-1.1941121203956362
5.340450684587666,-1.1891098248874048
5.342451602790959,-1.1882764991031607
5.344452520994251,-1.1882764991031607
5.346453439197544,-1.1882764991031607
5.348454357400836,-1.1905189881517744
5.350455275604129,-1.1955212836600058
5.352456193807421,-1.1854019933080706
5.354457112010714,-1.1713431319030931
5.356458030214006,-1.1713431319030931
5.358458948417299,-1.1694892161134236
5.360459866620591,-1.164486920605193
5.362460784823884,-1.1628764483030591
5.364461703027176,-1.1628764483030591
5.366462621230468,-1.1579467176805347
5.368463539433761,-1.1544097647030251
5.370464457637054,-1.1544097647030251
5.3724653758403464,-1.1544097647030251
5.374466294043638,-1.1544097647030251
5.376467212246931,-1.1544097647030251
5.378468130450224,-1.2330139215427773
5.3804690486535165,-1.5981814936437628
5.382469966856808,-1.7750923441937034
5.384470885060101,-1.7800946397019348
5.386471803263394,-1.7809443511055314
5.3884727214666865,-1.7802561550926987
5.390473639669978,-1.7752538595844685
5.392474557873271,-1.7724776675054974
5.394475476076564,-1.7724776675054974
5.396476394279856,-1.7724776675054974
5.398477312483148,-1.7724776675054974
5.400478230686441,-1.7724776675054974
5.402479148889734,-1.770640137335181
5.404480067093026,-1.7656378418269518
5.4064809852963185,-1.7606355463187198
5.408481903499611,-1.755633250810487
5.410482821702904,-0.36506766440713756
5.412483739906196,0.6419761154155239
5.4144846581094885,0.6469784109237553
5.416485576312781,0.6489938421041885
5.418486494516073,0.6489938421041885
5.420487412719366,0.6489938421041885
5.422488330922659,0.6489938421041885
5.424489249125951,0.6489938421041885
5.426490167329243,0.6489938421041885
5.428491085532536,0.6489938421041885
5.430492003735829,0.6489938421041885
5.432492921939121,0.6489938421041885
5.434493840142413,0.6489938421041885
5.436494758345706,0.6489938421041885
5.438495676548999,0.6489938421041885
5.4404965947522905,0.6489938421041885
5.442497512955583,0.6487106049696556
5.444498431158876,0.6437083094614229
5.446499349362169,0.6423483030551185
5.448500267565461,0.6473505985633476
5.450501185768753,0.7363291932563447
5.452502103972046,0.8663888764703604
5.454503022175339,-0.25227608318988914
5.456503940378631,-1.0711754999947036
5.458504858581923,-1.076177795502935
5.460505776785216,-1.0782096123027203
5.462506694988509,-1.0782096123027203
5.464507613191801,-1.073701226177847
5.466508531395093,-1.0707869267357588
5.468509449598386,-1.0757892222439902
5.470510367801678,-1.0782096123027203
5.472511286004971,-1.0782096123027203
5.4745122042082635,-1.0740897994367917
5.476513122411556,-1.0690875039285592
5.478514040614848,-1.06408520842033
5.480514958818141,-1.0634695772932068
5.4825158770214335,-1.0684718728014382
5.484516795224726,0.2772345694185092
5.486517713428018,1.9864629993943588
5.488518631631311,1.9814607038861274
5.4905195498346036,1.9800679262411154
5.492520468037895,1.9850702217493454
5.494521386241188,1.9900725172575773
5.496522304444481,1.9950748127658087
5.498523222647774,1.990315960745106
5.5005241408510654,1.9867298509095392
5.502525059054358,1.9867298509095392
5.504525977257651,1.9867298509095392
5.506526895460944,1.9867298509095392
5.5085278136642355,1.9822378504040192
5.510528731867528,1.979290779723223
5.512529650070821,1.9842930752314558
5.514530568274113,1.9867298509095392
5.5165314864774055,1.9867298509095392
5.518532404680698,1.9867298509095392
5.520533322883991,1.987368890064312
5.522534241087283,1.9923711855725426
5.524535159290576,1.995196534509573
5.526536077493868,1.995196534509573
5.528536995697161,1.995196534509573
5.530537913900453,1.9949460686137472
5.532538832103746,1.9899437731055145
5.534539750307038,1.9867298509095392
5.536540668510331,1.9867298509095392
5.538541586713623,1.983403570180855
5.540542504916916,1.9784012746726223
5.542543423120208,1.3605112728799558
5.5445443413235,0.9015945500518945
5.546545259526793,0.8965922545436635
5.548546177730086,0.8974653739749101
5.5505470959333785,0.9024676694831428
5.55254801413667,0.907469964991372
5.554548932339963,0.9124722604996034
5.556549850543256,0.9174745560078348
5.5585507687465485,0.919927717305272
5.56055168694984,0.919927717305272
5.562552605153133,0.919927717305272
5.564553523356426,0.9193050637698517
5.566554441559718,0.9143027682616225
5.56855535976301,0.9114610337052382
5.570556277966303,0.9114610337052382
5.572557196169596,0.9077625653369603
5.574558114372888,0.9027602698287311
5.5765590325761805,0.8977579743204998
5.578559950779473,0.42849490327178197
5.580560868982766,-0.8871088153934121
5.582561787186058,-1.3553793860690535
5.5845627053893505,-1.390395454626673
5.586563623592643,-1.3866291029782123
5.588564541795935,-1.384393636337897
5.590565459999228,-1.3893959318461284
5.592566378202521,-1.3943982273543598
5.594567296405813,-1.399400522862591
5.596568214609105,-1.3954843598371933
5.598569132812398,-1.3914769055039735
5.600570051015691,-1.3914769055039735
5.602570969218983,-1.388944156912532
5.604571887422275,-1.3839418614043029
5.606572805625568,-1.3830102219039397
5.608573723828861,-1.3720973994147188
5.6105746420321525,-1.2820560802665941
5.612575560235445,-1.23060991710333
5.614576478438738,-1.23060991710333
5.616577396642031,-1.2342919998522544
5.6185783148453226,-1.2390766007033638
5.620579233048615,-1.2390766007033638
5.622580151251908,-1.240832202776914
5.624581069455201,-1.2458344982851468
5.626581987658493,-1.2475432843033978
5.628582905861785,-1.2475432843033978
5.630583824065078,-1.2427118673969904
5.632584742268371,-1.2390766007033638
5.634585660471663,-1.2390766007033638
5.636586578674955,-1.2361716644723302
5.638587496878248,-1.2311693689640988
5.64058841508154,-1.2261670734558696
5.642589333284833,-1.2201863223919798
5.644590251488125,-1.2101817313755143
5.646591169691418,-1.0491953620337104
5.64859208789471,-0.7390530405235034
5.650593006098003,-0.6843297534896444
5.6525939243012955,-0.6881522844044494
5.654594842504588,-0.6831499888962165
5.65659576070788,-0.6802754831011286
5.658596678911173,-0.6802754831011286
5.6605975971144655,-0.6766097859715579
5.662598515317757,-0.6718087995010948
5.66459943352105,-0.6718087995010948
5.666600351724343,-0.673548015955292
5.668601269927636,-0.6785503114635234
5.670602188130927,-0.6802754831011286
5.67260310633422,-0.6802754831011286
5.674604024537513,-0.6802754831011286
5.676604942740806,-0.6802754831011286
5.6786058609440975,-0.6802754831011286
5.68060677914739,-0.6802754831011286
5.682607697350683,-0.6802754831011286
5.684608615553975,-0.6847019411292365
5.6866095337572675,-0.7522387824973225
5.68861045196056,-1.0823902860405925
5.690611370163853,-1.2450433069506628
5.692612288367145,-1.2400410114424323
5.694613206570438,-1.2390766007033638
5.69661412477373,-1.2390766007033638
5.698615042977023,-1.2390766007033638
5.700615961180315,-1.2390766007033638
5.702616879383608,-1.2390766007033638
5.7046177975869,-1.148175568539742
5.706618715790193,-1.0235729349710696
5.708619633993485,-0.898970301402453
5.710620552196778,-0.7743676678337694
5.71262147040007,-0.6497650342650645
5.714622388603362,-0.5251624006964364
5.716623306806655,-0.4005597671277643
5.718624225009948,-0.2759571335590607
5.7206251432132404,-0.15135449999036443
5.722626061416532,-0.026751866421747428
5.724626979619825,0.09785076714692442
5.726627897823118,0.2224534007155965
5.7286288160264105,0.34705603428429743
5.730629734229702,0.47165866785294064
5.732630652432995,0.5962613014216132
5.734631570636288,0.7208639349902852
5.73663248883958,0.8454665685589022
5.738633407042872,0.970069202127601
5.740634325246165,1.0813518167639238
5.742635243449458,1.0863541122721552
5.74463616165275,1.0892613893059493
5.746637079856042,1.0892613893059493
5.748637998059335,1.0928943151968142
5.750638916262628,1.0977280729059835
5.75263983446592,1.0977280729059835
5.7546407526692125,1.0960216276904933
5.756641670872505,1.0910193321822619
5.758642589075797,1.0892613893059493
5.76064350727909,1.0892613893059493
5.7626444254823825,1.0844791292576015
5.764645343685675,1.082112577662461
5.766646261888967,1.0871148731706914
5.76864718009226,1.0921171686789237
5.770648098295553,1.0971194641871551
5.772649016498845,1.0977280729059835
5.774649934702137,1.0977280729059835
5.77665085290543,1.0977280729059835
5.778651771108723,1.0977280729059835
5.780652689312015,1.0977280729059835
5.782653607515307,1.1017331864364395
5.7846545257186,1.1056540310673637
5.786655443921893,1.100651735559131
5.7886563621251845,1.0977280729059835
5.790657280328477,1.0977280729059835
5.79265819853177,1.0977280729059835
5.794659116735063,1.0975759207262747
5.796660034938355,1.0925736252180442
5.798660953141647,1.090951448902087
5.80066187134494,1.0959537444103185
5.802662789548233,1.0945001058934158
5.804663707751525,1.0894978103851853
5.806664625954817,1.0892613893059493
5.80866554415811,0.7482719689614261
5.810666462361402,-0.5623294541946096
5.812667380564695,-1.1261703201493034
5.814668298767987,-1.121168024641071
5.81666921697128,-1.1161657291328393
5.818670135174572,-1.1157279990158393
5.820671053377865,-1.1357371810487646
5.8226719715811575,-1.1459430811029914
5.82467288978445,-1.1459430811029914
5.826673807987742,-1.1419543531918879
5.828674726191035,-1.13380601876785
5.8306756443943275,-1.0987899502102305
5.832676562597619,-1.0761473650669922
5.834677480800912,-1.0711450695587597
5.836678399004205,-1.0733430833548454
5.8386793172074976,-1.0802461107080648
5.840680235410789,-1.1552805433315019
5.842681153614082,-1.211904562210362
5.844682071817375,-1.2319137442432926
5.846682990020668,-1.2390766007033638
5.8486839082239594,-1.2390766007033638
5.850684826427252,-1.2390766007033638
5.852685744630545,-1.2390766007033638
5.854686662833837,-1.2390766007033638
5.8566875810371295,-1.2390766007033638
5.858688499240422,-1.2390766007033638
5.860689417443715,-1.2390766007033638
5.862690335647007,-1.128803723259479
5.8646912538502995,-0.513521375747021
5.866692172053592,-0.19767451789919832
5.868693090256885,-0.19767451789919832
5.870694008460177,-0.19767451789919832
5.87269492666347,-0.19818247209914697
5.874695844866762,-0.20318476760737814
5.876696763070055,-0.20818706311560953
5.878697681273347,-0.21318935862383892
5.88069859947664,-0.2146078850992661
5.882699517679932,-0.2051767907599642
5.884700435883224,0.1900045543901383
5.886701354086517,0.45260283094597886
5.88870227228981,0.4476005354377479
5.890703190493102,0.4457934357033757
5.892704108696394,0.4457934357033757
5.894705026899687,0.4410603325130875
5.89670594510298,0.43732675210334193
5.8987068633062725,0.43732675210334193
5.900707781509564,0.4345201295884271
5.902708699712857,0.4295178340801957
5.90470961791615,0.4288600685033077
5.906710536119442,0.42797992666376894
5.908711454322734,0.4229776311555362
5.910712372526027,0.42039338490327394
5.91271329072932,0.42039338490327394
5.914714208932612,0.7606056587293657
5.916715127135904,1.1490197430867806
5.918716045339197,1.1540220385950133
5.92071696354249,1.1569948581062204
5.922717881745782,1.1569948581062204
5.9247187999490745,1.1569948581062204
5.926719718152367,1.1569948581062204
5.928720636355659,1.1569948581062204
5.930721554558952,1.1553539553681422
5.9327224727622445,1.1503516598599113
5.934723390965537,0.7988590575104317
5.936724309168829,0.2486065516052256
5.938725227372122,-0.30164595430036023
5.940726145575415,-0.7153945469803973
5.942727063778707,-0.7203968424886287
5.944727981981999,-0.7253991379968585
5.946728900185292,-0.7304014335050912
5.948729818388585,-0.7310755847013319
5.950730736591877,-0.7310755847013319
5.952731654795169,-0.7310755847013319
5.954732572998462,-0.7334772483379477
5.956733491201755,-0.7384795438461802
5.9587344094050465,-0.7356026972483218
5.960735327608339,-0.7534091838796801
5.962736245811632,-0.9885170727665542
5.964737164014925,-1.1310228042805943
5.9667380822182166,-1.1360250997888248
5.968739000421509,-1.1374763975029576
5.970739918624802,-1.1374763975029576
5.972740836828095,-1.1374763975029576
5.974741755031387,-1.1374763975029576
5.976742673234679,-1.1374763975029576
5.978743591437972,-1.1406388220381118
5.980744509641264,-1.145641117546341
5.982745427844557,-1.1506434130545737
5.984746346047849,-1.156881652422587
5.986747264251142,-1.1668862434390497
5.988748182454434,-1.1768908344555078
5.990749100657727,-1.1868954254719704
5.992750018861019,-1.201211775181073
5.994750937064312,-1.2153712911049341
5.996751855267604,-1.2253758821213925
5.998752773470897,-1.23060991710333
6.0007536916741895,-1.23060991710333
6.002754609877481,-1.2227635462359494
6.004755528080774,-1.10172999848235
6.006756446284067,0.11883010552610296
6.0087573644873595,0.858184362779955
6.010758282690651,0.8731912493046421
6.012759200893944,0.8846635236545937
6.014760119097237,0.8945276665051707
6.01676103730053,0.8945276665051707
6.018761955503821,0.8945276665051707
6.020762873707114,0.8945276665051707
6.022763791910407,0.8913816275893702
6.0247647101137,0.8863793320811371
6.0267656283169915,0.8860609829051365
6.028766546520284,0.8860609829051365
6.030767464723577,0.8860609829051365
6.032768382926869,0.8888184485619917
6.0347693011301615,0.893820744070223
6.036770219333454,1.2166806470014557
6.038771137536747,1.5286979515262291
6.040772055740039,1.5236956560179986
6.042772973943332,1.5234311453055867
6.044773892146624,1.528433440813818
6.046774810349917,1.5054870914963936
6.048775728553209,1.474703734522675
6.050776646756502,1.4439203775489355
6.052777564959794,1.4131370205751992
6.054778483163086,1.3823536636014815
6.056779401366379,1.3515703066277496
6.058780319569672,1.320786949654018
6.060781237772964,1.2900035926802782
6.062782155976256,1.2592202357065552
6.064783074179549,1.2284368787328241
6.066783992382842,1.1976535217590927
6.0687849105861345,1.1668701647853608
6.070785828789426,1.1360868078116355
6.072786746992719,1.1053034508378978
6.074787665196012,1.0745200938641668
6.076788583399304,1.0437367368904447
6.078789501602596,1.0129533799167048
6.080790419805889,0.982170022942972
6.082791338009182,0.9513866659692405
6.084792256212474,0.9206033089955228
6.086793174415766,0.8898199520217873
6.088794092619059,0.8590365950480479
6.090795010822352,0.8405230059200415
6.092795929025644,0.8267941977048996
6.094796847228936,0.8267941977048996
6.096797765432229,0.8267941977048996
6.098798683635521,0.8267941977048996
6.100799601838814,0.8232923567688601
6.1028005200421065,0.8185147783260511
6.104801438245399,0.8435262558672081
6.106802356448691,0.8622362923656994
6.108803274651984,0.8672385878739317
6.1108041928552765,0.8691276157050689
6.112805111058569,0.8691276157050689
6.114806029261861,0.8691276157050689
6.116806947465154,0.8691276157050689
6.118807865668447,0.8691276157050689
6.120808783871739,0.8691276157050689
6.122809702075031,0.8691276157050689
6.124810620278324,1.1376715312834684
6.126811538481617,1.4025286825072025
6.1288124566849085,1.4025286825072025
6.130813374888201,1.4025286825072025
6.132814293091494,1.4025286825072025
6.134815211294787,1.4064027110828352
6.1368161294980785,1.4109953661072363
6.138817047701371,1.4109953661072363
6.140817965904664,1.4129429140074947
6.142818884107957,1.4179452095157257
6.144819802311249,1.4124911390738988
6.146820720514541,1.4025286825072025
6.148821638717834,1.4025286825072025
6.150822556921126,1.4025286825072025
6.152823475124419,1.4025286825072025
6.154824393327711,1.4025286825072025
6.156825311531004,1.4025286825072025
6.158826229734296,1.4025286825072025
6.160827147937589,1.4025286825072025
6.162828066140881,1.4025286825072025
6.164828984344174,1.4025286825072025
6.166829902547466,1.4025286825072025
6.168830820750759,1.2411724663286834
6.1708317389540515,1.0807947057059155
6.172832657157343,1.0807947057059155
6.174833575360636,1.0807947057059155
6.176834493563929,1.0807947057059155
6.1788354117672215,0.04308875046675453
6.180836329970513,-1.1967431827031945
6.182837248173806,-1.1967431827031945
6.184838166377099,-1.1967431827031945
6.186839084580392,-1.1967431827031945
6.188840002783683,-1.1967431827031945
6.190840920986976,-1.1967431827031945
6.192841839190269,-1.1967431827031945
6.194842757393562,-1.1952005936812335
6.1968436755968535,-1.1901982981730044
6.198844593800146,-1.1851960026647732
6.200845512003439,-1.1801937071565418
6.202846430206731,-1.1659546039386803
6.2048473484100235,-1.1509477174139833
6.206848266613316,-1.135940830889289
6.208849184816609,-1.1317016370823672
6.210850103019901,-1.1367039325905977
6.2128510212231935,-1.1543957198864443
6.214851939426486,-1.1713431319030931
6.216852857629779,-1.1713431319030931
6.218853775833071,-1.1713431319030931
6.220854694036364,-1.1713431319030931
6.222855612239656,-1.1713431319030931
6.224856530442948,-1.1709662626579709
6.226857448646241,-1.1659639671497395
6.228858366849534,-1.1628764483030591
6.230859285052826,-1.1628764483030591
6.232860203256118,-0.47924500086302957
6.234861121459411,0.5112095097667804
6.236862039662704,0.5135269045036464
6.238862957865996,0.7424574148946528
6.240863876069288,1.4928017411292211
6.242864794272581,1.7896576661467969
6.244865712475874,1.7996622571632597
6.246866630679166,1.66240226464494
6.248867548882458,1.5453246735641186
6.250868467085751,1.540322378055886
6.252869385289044,1.5406711576678345
6.254870303492336,1.5456734531760636
6.256871221695628,1.546462303707778
6.258872139898921,1.5457132468230612
6.260873058102214,1.5407109513148298
6.262873976305506,1.535708655806601
6.264874894508798,1.5307063602983697
6.266875812712091,1.5333538082252836
6.268876730915383,1.5379956201077443
6.270877649118676,1.5379956201077443
6.2728785673219685,1.5379956201077443
6.274879485525261,1.5379956201077443
6.276880403728553,1.5379956201077443
6.278881321931846,1.5379956201077443
6.2808822401351385,1.5379956201077443
6.282883158338431,1.5379956201077443
6.284884076541723,1.5379956201077443
6.286884994745016,1.5379956201077443
6.288885912948309,1.5379956201077443
6.290886831151601,1.5379956201077443
6.292887749354893,1.5379956201077443
6.294888667558186,1.5379956201077443
6.296889585761479,1.5353364681670079
6.2988905039647705,1.5303341726587774
6.300891422168063,1.533725995864875
6.302892340371356,1.5205946775553905
6.304893258574649,1.4017901592348645
6.3068941767779405,1.2829856409144051
6.308895094981233,1.1641811225939103
6.310896013184526,1.0453766042734154
6.312896931387819,0.9265720859529187
6.314897849591111,0.8077675676324452
6.316898767794403,0.6889630493119308
6.318899685997696,0.5701585309914359
6.320900604200988,0.45135401267099384
6.322901522404281,0.33254949435049896
6.324902440607573,0.213744976029973
