Time_Seconds,Voltage_mV
0.0,-1.2056860349147986
0.0020008852484120878,-1.0456152150418316
0.0040017704968241755,-0.9347521597137147
0.006002655745236263,-0.9347521597137147
0.008003540993648351,-0.9347521597137147
0.010004426242060438,-0.9347521597137147
0.012005311490472527,-0.9347521597137147
0.014006196738884615,-0.9347521597137147
0.016007081987296702,-0.9347521597137147
0.01800796723570879,-0.9347521597137147
0.020008852484120876,-0.9347521597137147
0.022009737732532966,-0.9347521597137147
0.024010622980945053,-0.9347521597137147
0.02601150822935714,-0.9347521597137147
0.02801239347776923,-0.9347521597137147
0.030013278726181317,-0.9347521597137147
0.032014163974593404,-0.9347521597137147
0.034015049223005495,-0.9347521597137147
0.03601593447141758,-0.9347521597137147
0.03801681971982967,-0.9347521597137147
0.04001770496824175,-0.9347521597137147
0.04201859021665384,-0.9347521597137147
0.04401947546506593,-0.9347521597137147
0.046020360713478016,-0.9347521597137147
0.048021245961890106,-0.9347521597137147
0.0500221312103022,-0.9347521597137147
0.05202301645871428,-0.9347521597137147
0.05402390170712637,-0.9347521597137147
0.05602478695553846,-0.9347521597137147
0.058025672203950544,-0.9347521597137147
0.060026557452362635,-0.9347521597137147
0.06202744270077472,-0.9347521597137147
0.06402832794918681,-0.9347521597137147
0.0660292131975989,-0.9347521597137147
0.06803009844601099,-0.9347521597137147
0.07003098369442307,-0.9347521597137147
0.07203186894283516,-0.9347521597137147
0.07403275419124725,-0.9347521597137147
0.07603363943965934,-0.9347521597137147
0.07803452468807143,-0.9347521597137147
0.0800354099364835,-0.9347521597137147
0.0820362951848956,-0.9347521597137147
0.08403718043330768,-0.9347521597137147
0.08603806568171977,-0.9347521597137147
0.08803895093013187,-0.9347521597137147
0.09003983617854396,-0.9347521597137147
0.09204072142695603,-0.9347521597137147
0.09404160667536812,-0.9347521597137147
0.09604249192378021,-0.9347521597137147
0.0980433771721923,-0.9347521597137147
0.1000442624206044,-0.9347521597137147
0.10204514766901647,-0.9347521597137147
0.10404603291742856,-0.9347521597137147
0.10604691816584065,-0.9347521597137147
0.10804780341425274,-0.9347521597137147
0.11004868866266483,-0.9347521597137147
0.11204957391107692,-0.9347521597137147
0.114050459159489,-0.9347521597137147
0.11605134440790109,-0.9347521597137147
0.11805222965631318,-0.9347521597137147
0.12005311490472527,-0.9347521597137147
0.12205400015313736,-0.9347521597137147
0.12405488540154944,-0.9347521597137147
0.12605577064996154,-0.9347521597137147
0.12805665589837362,-0.9347521597137147
0.1300575411467857,-0.8154064974150104
0.1320584263951978,-0.6403290381789524
0.13405931164360987,-0.618627758881714
0.13606019689202198,-0.6045514993123939
0.13806108214043405,-0.6045514993123939
0.14006196738884613,-0.6045514993123939
0.14206285263725824,-0.6045514993123939
0.1440637378856703,-0.6045514993123939
0.14606462313408242,-0.6045514993123939
0.1480655083824945,-0.6045514993123939
0.15006639363090657,-0.6045514993123939
0.15206727887931867,-0.6045514993123939
0.15406816412773075,-0.6045514993123939
0.15606904937614285,-0.6045514993123939
0.15806993462455493,-0.6045514993123939
0.160070819872967,-0.6045514993123939
0.1620717051213791,-0.6045514993123939
0.1640725903697912,-0.6045514993123939
0.1660734756182033,-0.6045514993123939
0.16807436086661537,-0.6045514993123939
0.17007524611502747,-0.6045514993123939
0.17207613136343955,-0.6045514993123939
0.17407701661185163,-0.6045514993123939
0.17607790186026373,-0.6045514993123939
0.1780787871086758,-0.6045514993123939
0.1800796723570879,-0.6045514993123939
0.1820805576055,-0.6045514993123939
0.18408144285391206,-0.6045514993123939
0.18608232810232417,-0.6045514993123939
0.18808321335073624,-0.6045514993123939
0.19008409859914835,-0.6045514993123939
0.19208498384756043,-0.6045514993123939
0.1940858690959725,-0.6045514993123939
0.1960867543443846,-0.6045514993123939
0.19808763959279668,-0.6045514993123939
0.2000885248412088,-0.6045514993123939
0.20208941008962086,-0.6045514993123939
0.20409029533803294,-0.6045514993123939
0.20609118058644504,-0.6045514993123939
0.20809206583485712,-0.6045514993123939
0.21009295108326922,-0.6045514993123939
0.2120938363316813,-0.6045514993123939
0.21409472158009338,-0.6045514993123939
0.21609560682850548,-0.6045514993123939
0.21809649207691756,-0.6045514993123939
0.22009737732532966,-0.6045514993123939
0.22209826257374174,-0.6045514993123939
0.22409914782215384,-0.6045514993123939
0.22610003307056592,-0.6045514993123939
0.228100918318978,-0.6045514993123939
0.2301018035673901,-0.6045514993123939
0.23210268881580218,-0.6045514993123939
0.23410357406421428,-0.6045514993123939
0.23610445931262636,-0.6045514993123939
0.23810534456103843,-0.6045514993123939
0.24010622980945054,-0.6045514993123939
0.24210711505786262,-0.6045514993123939
0.24410800030627472,-0.6045514993123939
0.2461088855546868,-0.6045514993123939
0.24810977080309887,-0.6045514993123939
0.25011065605151095,-0.6045514993123939
0.2521115412999231,-0.6045514993123939
0.25411242654833516,-0.6045514993123939
0.25611331179674723,-0.6045514993123939
0.2581141970451593,-0.6045514993123939
0.2601150822935714,-0.6045514993123939
0.2621159675419835,-0.6045514993123939
0.2641168527903956,-0.6045514993123939
0.26611773803880767,-0.43329564900918216
0.26811862328721975,-0.3025033580497132
0.2701195085356318,-0.2824945055655923
0.27212039378404396,-0.27435083891107315
0.27412127903245603,-0.27435083891107315
0.2761221642808681,-0.27435083891107315
0.2781230495292802,-0.27435083891107315
0.28012393477769226,-0.27435083891107315
0.2821248200261044,-0.27435083891107315
0.28412570527451647,-0.27435083891107315
0.28612659052292855,-0.27435083891107315
0.2881274757713406,-0.27435083891107315
0.2901283610197527,-0.27435083891107315
0.29212924626816483,-0.27435083891107315
0.2941301315165769,-0.27435083891107315
0.296131016764989,-0.27435083891107315
0.29813190201340106,-0.27435083891107315
0.30013278726181314,-0.27435083891107315
0.30213367251022527,-0.27435083891107315
0.30413455775863735,-0.27435083891107315
0.3061354430070494,-0.27435083891107315
0.3081363282554615,-0.27435083891107315
0.3101372135038736,-0.27435083891107315
0.3121380987522857,-0.27435083891107315
0.3141389840006978,-0.27435083891107315
0.31613986924910986,-0.27435083891107315
0.31814075449752194,-0.27435083891107315
0.320141639745934,-0.27435083891107315
0.32214252499434615,-0.27435083891107315
0.3241434102427582,-0.27435083891107315
0.3261442954911703,-0.27435083891107315
0.3281451807395824,-0.27435083891107315
0.3301460659879945,-0.27435083891107315
0.3321469512364066,-0.27435083891107315
0.33414783648481866,-0.27435083891107315
0.33614872173323074,-0.27435083891107315
0.3381496069816428,-0.27435083891107315
0.34015049223005495,-0.27435083891107315
0.342151377478467,-0.27435083891107315
0.3441522627268791,-0.27435083891107315
0.3461531479752912,-0.27435083891107315
0.34815403322370325,-0.27435083891107315
0.3501549184721154,-0.27435083891107315
0.35215580372052746,-0.27435083891107315
0.35415668896893954,-0.27435083891107315
0.3561575742173516,-0.27435083891107315
0.3581584594657637,-0.27435083891107315
0.3601593447141758,-0.27435083891107315
0.3621602299625879,-0.27435083891107315
0.364161115211,-0.27435083891107315
0.36616200045941205,-0.27435083891107315
0.36816288570782413,-0.27435083891107315
0.37016377095623626,-0.27435083891107315
0.37216465620464834,-0.27435083891107315
0.3741655414530604,-0.27435083891107315
0.3761664267014725,-0.27435083891107315
0.37816731194988457,-0.27435083891107315
0.3801681971982967,-0.27435083891107315
0.3821690824467088,-0.27435083891107315
0.38416996769512085,-0.27435083891107315
0.3861708529435329,-0.27435083891107315
0.388171738191945,-0.27435083891107315
0.39017262344035714,-0.27435083891107315
0.3921735086887692,-0.27435083891107315
0.3941743939371813,-0.27435083891107315
0.39617527918559337,-0.27435083891107315
0.39817616443400544,-0.10500579307428426
0.4001770496824176,0.028852884100349918
0.40217793493082965,0.053863949705501124
0.4041788201792417,0.06431650509028142
0.4061797054276538,0.06431650509028142
0.4081805906760659,0.05541761571808035
0.410181475924478,0.04738313789021387
0.4121823611728901,0.04738313789021387
0.41418324642130216,0.04738313789021387
0.41618413166971424,0.04738313789021387
0.4181850169181263,0.05550405687251381
0.42018590216653845,0.06431650509028142
0.4221867874149505,0.06431650509028142
0.4241876726633626,0.06431650509028142
0.4261885579117747,0.06431650509028142
0.42818944316018676,0.06431650509028142
0.4301903284085989,0.06431650509028142
0.43219121365701096,0.06431650509028142
0.43419209890542304,0.06431650509028142
0.4361929841538351,0.06431650509028142
0.4381938694022472,0.05775152688778329
0.4401947546506593,0.04774710064572263
0.4421956398990714,0.04738313789021387
0.4441965251474835,0.04738313789021387
0.44619741039589556,0.04738313789021387
0.4481982956443077,0.05317014570281131
0.45019918089271976,0.06317457194487153
0.45220006614113184,0.06431650509028142
0.4542009513895439,0.06431650509028142
0.456201836637956,0.06431650509028142
0.4582027218863681,0.06431650509028142
0.4602036071347802,0.06431650509028142
0.4622044923831923,0.06431650509028142
0.46420537763160435,0.06431650509028142
0.46620626288001643,0.06431650509028142
0.46820714812842856,0.060085438057485785
0.47020803337684064,0.05008101181542601
0.4722089186252527,0.04738313789021387
0.4742098038736648,0.04738313789021387
0.47621068912207687,0.04738313789021387
0.478211574370489,0.05083623453310837
0.4802124596189011,0.06084066077516859
0.48221334486731315,0.06431650509028142
0.48421423011572523,0.06431650509028142
0.4862151153641373,0.06431650509028142
0.48821600061254944,0.06431650509028142
0.4902168858609615,0.06431650509028142
0.4922177711093736,0.06431650509028142
0.49421865635778567,0.06431650509028142
0.49621954160619774,0.06431650509028142
0.4982204268546099,0.06431650509028142
0.5002213121030219,0.06431650509028142
0.502222197351434,0.06431650509028142
0.5042230825998462,0.06431650509028142
0.5062239678482582,0.06431650509028142
0.5082248530966703,0.06431650509028142
0.5102257383450823,0.06431650509028142
0.5122266235934945,0.06431650509028142
0.5142275088419066,0.06431650509028142
0.5162283940903186,0.06431650509028142
0.5182292793387308,0.06431650509028142
0.5202301645871428,0.06431650509028142
0.5222310498355549,0.06431650509028142
0.524231935083967,0.06431650509028142
0.5262328203323791,0.06431650509028142
0.5282337055807912,0.06431650509028142
0.5302345908292032,0.12650636617070132
0.5322354760776153,0.1572316470373476
0.5342363613260275,0.09220287646395287
0.5362372465744395,0.06431650509028142
0.5382381318228516,0.06431650509028142
0.5402390170712636,0.06431650509028142
0.5422399023196758,0.06431650509028142
0.5442407875680879,0.06431650509028142
0.5462416728164999,0.06431650509028142
0.5482425580649121,0.06431650509028142
0.5502434433133241,0.06431650509028142
0.5522443285617362,0.06431650509028142
0.5542452138101484,0.06431650509028142
0.5562460990585604,0.06431650509028142
0.5582469843069725,0.06431650509028142
0.5602478695553845,0.06431650509028142
0.5622487548037967,0.06431650509028142
0.5642496400522088,0.06431650509028142
0.5662505253006208,0.06431650509028142
0.5682514105490329,0.06431650509028142
0.570252295797445,0.06431650509028142
0.5722531810458571,0.06431650509028142
0.5742540662942692,0.06431650509028142
0.5762549515426812,0.06431650509028142
0.5782558367910934,0.06431650509028142
0.5802567220395054,0.06431650509028142
0.5822576072879175,0.06431650509028142
0.5842584925363297,0.06431650509028142
0.5862593777847417,0.06431650509028142
0.5882602630331538,0.06431650509028142
0.5902611482815658,0.06431650509028142
0.592262033529978,0.06431650509028142
0.5942629187783901,0.06431650509028142
0.5962638040268021,0.06431650509028142
0.5982646892752143,0.06431650509028142
0.6002655745236263,0.06431650509028142
0.6022664597720384,0.06431650509028142
0.6042673450204505,0.06431650509028142
0.6062682302688626,0.06431650509028142
0.6082691155172747,0.06431650509028142
0.6102700007656867,0.06431650509028142
0.6122708860140988,0.06431650509028142
0.614271771262511,0.06431650509028142
0.616272656510923,0.06431650509028142
0.6182735417593351,0.06431650509028142
0.6202744270077472,0.06431650509028142
0.6222753122561593,0.06431650509028142
0.6242761975045714,0.06431650509028142
0.6262770827529834,0.06431650509028142
0.6282779680013956,0.06431650509028142
0.6302788532498076,0.06431650509028142
0.6322797384982197,0.06431650509028142
0.6342806237466319,0.06431650509028142
0.6362815089950439,0.06431650509028142
0.638282394243456,0.06431650509028142
0.640283279491868,0.06431650509028142
0.6422841647402802,0.06431650509028142
0.6442850499886923,0.06431650509028142
0.6462859352371043,0.06431650509028142
0.6482868204855164,0.06431650509028142
0.6502877057339286,0.06431650509028142
0.6522885909823406,0.06431650509028142
0.6542894762307527,0.06431650509028142
0.6562903614791648,0.06431650509028142
0.6582912467275769,0.06431650509028142
0.660292131975989,0.06431650509028142
0.662293017224401,0.06431650509028142
0.6642939024728132,0.08075852257041483
0.6662947877212252,0.145787293143806
0.6682956729696373,0.13795072006424336
0.6702965582180495,0.07292194949084863
0.6722974434664615,0.06431650509028142
0.6742983287148736,0.06431650509028142
0.6762992139632856,0.06431650509028142
0.6783000992116978,0.06431650509028142
0.6803009844601099,0.06431650509028142
0.6823018697085219,0.06431650509028142
0.684302754956934,0.06431650509028142
0.6863036402053461,0.06431650509028142
0.6883045254537582,0.06431650509028142
0.6903054107021703,0.06431650509028142
0.6923062959505824,0.06431650509028142
0.6943071811989945,0.06431650509028142
0.6963080664474065,0.06431650509028142
0.6983089516958186,0.06431650509028142
0.7003098369442308,0.06431650509028142
0.7023107221926428,0.06431650509028142
0.7043116074410549,0.06431650509028142
0.7063124926894669,0.06431650509028142
0.7083133779378791,0.06431650509028142
0.7103142631862912,0.06431650509028142
0.7123151484347032,0.06431650509028142
0.7143160336831154,0.06431650509028142
0.7163169189315274,0.06431650509028142
0.7183178041799395,0.06431650509028142
0.7203186894283516,0.06431650509028142
0.7223195746767637,0.06431650509028142
0.7243204599251758,0.06431650509028142
0.7263213451735878,0.06431650509028142
0.728322230422,0.06431650509028142
0.7303231156704121,0.06431650509028142
0.7323240009188241,0.06431650509028142
0.7343248861672362,0.06431650509028142
0.7363257714156483,0.06431650509028142
0.7383266566640604,0.06431650509028142
0.7403275419124725,0.06431650509028142
0.7423284271608845,0.06431650509028142
0.7443293124092967,0.06431650509028142
0.7463301976577087,0.06431650509028142
0.7483310829061208,0.06431650509028142
0.750331968154533,0.06431650509028142
0.752332853402945,0.06431650509028142
0.7543337386513571,0.06431650509028142
0.7563346238997691,0.06431650509028142
0.7583355091481813,0.06431650509028142
0.7603363943965934,0.06431650509028142
0.7623372796450054,0.06431650509028142
0.7643381648934175,0.06431650509028142
0.7663390501418296,0.06431650509028142
0.7683399353902417,0.06431650509028142
0.7703408206386538,0.06431650509028142
0.7723417058870659,0.06431650509028142
0.774342591135478,0.06431650509028142
0.77634347638389,0.06431650509028142
0.7783443616323021,0.06431650509028142
0.7803452468807143,0.06431650509028142
0.7823461321291263,0.06431650509028142
0.7843470173775384,0.06431650509028142
0.7863479026259504,0.06431650509028142
0.7883487878743626,0.06431650509028142
0.7903496731227747,0.06431650509028142
0.7923505583711867,0.06431650509028142
0.7943514436195989,0.06431650509028142
0.7963523288680109,0.051004567307529225
0.798353214116423,-0.004019777023804405
0.8003540993648351,-0.10850665982885221
0.8023549846132472,-0.25357084033872423
0.8043558698616593,-0.27435083891107315
0.8063567551100713,-0.27435083891107315
0.8083576403584835,-0.27435083891107315
0.8103585256068956,-0.27435083891107315
0.8123594108553076,-0.27435083891107315
0.8143602961037197,-0.27435083891107315
0.8163611813521318,-0.27435083891107315
0.8183620666005439,-0.27435083891107315
0.820362951848956,-0.27435083891107315
0.822363837097368,-0.27435083891107315
0.8243647223457802,-0.27435083891107315
0.8263656075941922,-0.27435083891107315
0.8283664928426043,-0.27435083891107315
0.8303673780910165,-0.27435083891107315
0.8323682633394285,-0.27435083891107315
0.8343691485878406,-0.27435083891107315
0.8363700338362526,-0.27435083891107315
0.8383709190846648,-0.27435083891107315
0.8403718043330769,-0.27435083891107315
0.8423726895814889,-0.27435083891107315
0.844373574829901,-0.27435083891107315
0.8463744600783131,-0.27435083891107315
0.8483753453267252,-0.27435083891107315
0.8503762305751373,-0.27435083891107315
0.8523771158235494,-0.27435083891107315
0.8543780010719615,-0.27435083891107315
0.8563788863203735,-0.27435083891107315
0.8583797715687856,-0.27435083891107315
0.8603806568171978,-0.27435083891107315
0.8623815420656098,-0.27435083891107315
0.8643824273140219,-0.27435083891107315
0.866383312562434,-0.27435083891107315
0.8683841978108461,-0.27435083891107315
0.8703850830592582,-0.27435083891107315
0.8723859683076702,-0.27435083891107315
0.8743868535560824,-0.27435083891107315
0.8763877388044944,-0.27435083891107315
0.8783886240529065,-0.27435083891107315
0.8803895093013187,-0.27435083891107315
0.8823903945497307,-0.27435083891107315
0.8843912797981428,-0.27435083891107315
0.8863921650465548,-0.27435083891107315
0.888393050294967,-0.27435083891107315
0.8903939355433791,-0.27435083891107315
0.8923948207917911,-0.27435083891107315
0.8943957060402032,-0.27435083891107315
0.8963965912886154,-0.27435083891107315
0.8983974765370274,-0.27435083891107315
0.9003983617854395,-0.27435083891107315
0.9023992470338515,-0.27435083891107315
0.9044001322822637,-0.27435083891107315
0.9064010175306758,-0.27435083891107315
0.9084019027790878,-0.27435083891107315
0.9104027880275,-0.27435083891107315
0.912403673275912,-0.27435083891107315
0.9144045585243241,-0.27435083891107315
0.9164054437727363,-0.27435083891107315
0.9184063290211483,-0.27435083891107315
0.9204072142695604,-0.27435083891107315
0.9224080995179724,-0.27435083891107315
0.9244089847663846,-0.27435083891107315
0.9264098700147967,-0.27435083891107315
0.9284107552632087,-0.27435083891107315
0.9304116405116208,-0.27435083891107315
0.9324125257600329,-0.18008448523416876
0.934413411008445,-0.005007025998106318
0.9364142962568571,0.043138422254088926
0.9384151815052691,0.06431650509028142
0.9404160667536813,0.06431650509028142
0.9424169520020933,0.06431650509028142
0.9444178372505054,0.06431650509028142
0.9464187224989176,0.06431650509028142
0.9484196077473296,0.06431650509028142
0.9504204929957417,0.06431650509028142
0.9524213782441537,0.06431650509028142
0.9544222634925659,0.06431650509028142
0.956423148740978,0.06431650509028142
0.95842403398939,0.06431650509028142
0.9604249192378022,0.06431650509028142
0.9624258044862142,0.06431650509028142
0.9644266897346263,0.06431650509028142
0.9664275749830384,0.06431650509028142
0.9684284602314505,0.06431650509028142
0.9704293454798626,0.06431650509028142
0.9724302307282746,0.06431650509028142
0.9744311159766867,0.06431650509028142
0.9764320012250989,0.06431650509028142
0.9784328864735109,0.06431650509028142
0.980433771721923,0.06431650509028142
0.982434656970335,0.06431650509028142
0.9844355422187472,0.06431650509028142
0.9864364274671593,0.06431650509028142
0.9884373127155713,0.06431650509028142
0.9904381979639835,0.06431650509028142
0.9924390832123955,0.06431650509028142
0.9944399684608076,0.06431650509028142
0.9964408537092198,0.06431650509028142
0.9984417389576318,0.06431650509028142
1.0004426242060438,0.06431650509028142
1.002443509454456,0.06431650509028142
1.004444394702868,0.06431650509028142
1.0064452799512802,0.06431650509028142
1.0084461651996923,0.06431650509028142
1.0104470504481042,0.06431650509028142
1.0124479356965164,0.06431650509028142
1.0144488209449285,0.06431650509028142
1.0164497061933406,0.06431650509028142
1.0184505914417528,0.06431650509028142
1.0204514766901647,0.06431650509028142
1.0224523619385768,0.06431650509028142
1.024453247186989,0.06431650509028142
1.026454132435401,0.06431650509028142
1.0284550176838132,0.06431650509028142
1.030455902932225,0.06431650509028142
1.0324567881806372,0.06431650509028142
1.0344576734290494,0.06431650509028142
1.0364585586774615,0.06431650509028142
1.0384594439258736,0.06431650509028142
1.0404603291742855,0.06431650509028142
1.0424612144226977,0.06431650509028142
1.0444620996711098,0.06431650509028142
1.046462984919522,0.06431650509028142
1.048463870167934,0.06431650509028142
1.050464755416346,0.06431650509028142
1.0524656406647581,0.06431650509028142
1.0544665259131702,0.06431650509028142
1.0564674111615824,0.06431650509028142
1.0584682964099945,0.06431650509028142
1.0604691816584064,0.06431650509028142
1.0624700669068186,0.06431650509028142
1.0644709521552307,0.09861999479703121
1.0664718374036428,0.16364876537042816
1.068472722652055,0.12008924783762254
1.0704736079004669,0.06431650509028142
1.072474493148879,0.06431650509028142
1.0744753783972911,0.06431650509028142
1.0764762636457033,0.06431650509028142
1.0784771488941154,0.06431650509028142
1.0804780341425273,0.06431650509028142
1.0824789193909394,0.06431650509028142
1.0844798046393516,0.06431650509028142
1.0864806898877637,0.06431650509028142
1.0884815751361758,0.06431650509028142
1.0904824603845877,0.06431650509028142
1.0924833456329999,0.06431650509028142
1.094484230881412,0.06431650509028142
1.0964851161298241,0.06431650509028142
1.0984860013782363,0.06431650509028142
1.1004868866266482,0.06431650509028142
1.1024877718750603,0.06431650509028142
1.1044886571234724,0.06431650509028142
1.1064895423718846,0.06431650509028142
1.1084904276202967,0.06431650509028142
1.1104913128687086,0.06431650509028142
1.1124921981171207,0.06431650509028142
1.1144930833655329,0.06431650509028142
1.116493968613945,0.06431650509028142
1.1184948538623571,0.06431650509028142
1.120495739110769,0.06431650509028142
1.1224966243591812,0.06431650509028142
1.1244975096075933,0.06431650509028142
1.1264983948560054,0.06431650509028142
1.1284992801044176,0.06431650509028142
1.1305001653528295,0.06431650509028142
1.1325010506012416,0.06431650509028142
1.1345019358496538,0.06431650509028142
1.1365028210980659,0.06431650509028142
1.138503706346478,0.06431650509028142
1.14050459159489,0.06431650509028142
1.142505476843302,0.06431650509028142
1.1445063620917142,0.06431650509028142
1.1465072473401263,0.06431650509028142
1.1485081325885385,0.06431650509028142
1.1505090178369504,0.06431650509028142
1.1525099030853625,0.06431650509028142
1.1545107883337746,0.06431650509028142
1.1565116735821868,0.06431650509028142
1.158512558830599,0.06431650509028142
1.1605134440790108,0.06431650509028142
1.162514329327423,0.06431650509028142
1.164515214575835,0.06431650509028142
1.1665160998242472,0.06431650509028142
1.1685169850726593,0.06431650509028142
1.1705178703210712,0.06431650509028142
1.1725187555694834,0.06431650509028142
1.1745196408178955,0.06431650509028142
1.1765205260663076,0.06431650509028142
1.1785214113147198,0.06431650509028142
1.1805222965631317,0.06431650509028142
1.1825231818115438,0.06431650509028142
1.184524067059956,0.06431650509028142
1.186524952308368,0.06431650509028142
1.1885258375567802,0.06431650509028142
1.1905267228051921,0.06431650509028142
1.1925276080536042,0.06431650509028142
1.1945284933020164,0.06431650509028142
1.1965293785504285,0.09791026742379039
1.1985302637988406,0.1629390379971869
1.2005311490472526,0.12079897521087046
1.2025320342956647,0.06431650509028142
1.2045329195440768,0.06431650509028142
1.206533804792489,0.06431650509028142
1.208534690040901,0.06431650509028142
1.210535575289313,0.06431650509028142
1.2125364605377251,0.06431650509028142
1.2145373457861373,0.06431650509028142
1.2165382310345494,0.06431650509028142
1.2185391162829615,0.06431650509028142
1.2205400015313734,0.06431650509028142
1.2225408867797856,0.06431650509028142
1.2245417720281977,0.06431650509028142
1.2265426572766098,0.06431650509028142
1.228543542525022,0.06431650509028142
1.2305444277734339,0.06431650509028142
1.232545313021846,0.06431650509028142
1.2345461982702581,0.06431650509028142
1.2365470835186703,0.06431650509028142
1.2385479687670824,0.06431650509028142
1.2405488540154943,0.06431650509028142
1.2425497392639064,0.06431650509028142
1.2445506245123186,0.06431650509028142
1.2465515097607307,0.06431650509028142
1.2485523950091428,0.06431650509028142
1.2505532802575547,0.06431650509028142
1.2525541655059669,0.06431650509028142
1.254555050754379,0.06431650509028142
1.2565559360027911,0.06431650509028142
1.2585568212512033,0.06431650509028142
1.2605577064996152,0.06431650509028142
1.2625585917480273,0.06431650509028142
1.2645594769964394,0.06431650509028142
1.2665603622448516,0.06431650509028142
1.2685612474932637,0.06431650509028142
1.2705621327416756,0.06431650509028142
1.2725630179900878,0.06431650509028142
1.2745639032384999,0.06431650509028142
1.276564788486912,0.06431650509028142
1.2785656737353241,0.06431650509028142
1.280566558983736,0.06431650509028142
1.2825674442321482,0.06431650509028142
1.2845683294805603,0.06431650509028142
1.2865692147289725,0.06431650509028142
1.2885700999773846,0.06431650509028142
1.2905709852257967,0.06431650509028142
1.2925718704742086,0.06431650509028142
1.2945727557226208,0.06431650509028142
1.296573640971033,0.06431650509028142
1.298574526219445,0.06431650509028142
1.3005754114678572,0.06431650509028142
1.302576296716269,0.06431650509028142
1.3045771819646812,0.06431650509028142
1.3065780672130933,0.06431650509028142
1.3085789524615055,0.06431650509028142
1.3105798377099176,0.06431650509028142
1.3125807229583295,0.06431650509028142
1.3145816082067416,0.06431650509028142
1.3165824934551538,0.06431650509028142
1.318583378703566,0.06431650509028142
1.320584263951978,0.06431650509028142
1.32258514920039,0.06431650509028142
1.324586034448802,0.06431650509028142
1.3265869196972142,0.06431650509028142
1.3285878049456263,0.06431650509028142
1.3305886901940385,0.06431650509028142
1.3325895754424504,0.11719119439689196
1.3345904606908625,0.16654681881115918
1.3365913459392746,0.10151804823776667
1.3385922311876868,0.06431650509028142
1.340593116436099,0.06431650509028142
1.3425940016845108,0.06431650509028142
1.344594886932923,0.06431650509028142
1.346595772181335,0.06431650509028142
1.3485966574297472,0.06431650509028142
1.3505975426781593,0.06431650509028142
1.3525984279265713,0.06431650509028142
1.3545993131749834,0.06431650509028142
1.3566001984233955,0.06431650509028142
1.3586010836718077,0.06431650509028142
1.3606019689202198,0.06431650509028142
1.3626028541686317,0.06431650509028142
1.3646037394170438,0.06431650509028142
1.366604624665456,0.06431650509028142
1.368605509913868,0.06431650509028142
1.3706063951622802,0.06431650509028142
1.3726072804106921,0.06431650509028142
1.3746081656591043,0.06431650509028142
1.3766090509075164,0.06431650509028142
1.3786099361559285,0.06431650509028142
1.3806108214043407,0.06431650509028142
1.3826117066527526,0.06431650509028142
1.3846125919011647,0.06431650509028142
1.3866134771495768,0.06431650509028142
1.388614362397989,0.06431650509028142
1.390615247646401,0.06431650509028142
1.392616132894813,0.06431650509028142
1.3946170181432251,0.06431650509028142
1.3966179033916373,0.06431650509028142
1.3986187886400494,0.06431650509028142
1.4006196738884615,0.06431650509028142
1.4026205591368734,0.06431650509028142
1.4046214443852856,0.06431650509028142
1.4066223296336977,0.06431650509028142
1.4086232148821098,0.06431650509028142
1.410624100130522,0.06431650509028142
1.4126249853789339,0.06431650509028142
1.414625870627346,0.06431650509028142
1.4166267558757581,0.06431650509028142
1.4186276411241703,0.06431650509028142
1.4206285263725824,0.06431650509028142
1.4226294116209943,0.06431650509028142
1.4246302968694065,0.06431650509028142
1.4266311821178186,0.06431650509028142
1.4286320673662307,0.06431650509028142
1.4306329526146428,0.06431650509028142
1.4326338378630548,0.06431650509028142
1.434634723111467,0.06431650509028142
1.436635608359879,0.06431650509028142
1.4386364936082912,0.06431650509028142
1.4406373788567033,0.06431650509028142
1.4426382641051152,0.06431650509028142
1.4446391493535273,0.06431650509028142
1.4466400346019395,0.06431650509028142
1.4486409198503516,0.06431650509028142
1.4506418050987637,0.06431650509028142
1.4526426903471756,0.06431650509028142
1.4546435755955878,0.06431650509028142
1.456644460844,0.06431650509028142
1.458645346092412,0.06431650509028142
1.4606462313408242,0.06431650509028142
1.462647116589236,0.06431650509028142
1.4646480018376482,0.1164814670236507
1.4666488870860603,0.16725654618440045
1.4686497723344725,0.10222777561100793
1.4706506575828846,0.06431650509028142
1.4726515428312965,0.06431650509028142
1.4746524280797086,0.06431650509028142
1.4766533133281208,0.06431650509028142
1.478654198576533,0.06431650509028142
1.480655083824945,0.06431650509028142
1.482655969073357,0.06431650509028142
1.484656854321769,0.06431650509028142
1.4866577395701812,0.06431650509028142
1.4886586248185933,0.06431650509028142
1.4906595100670055,0.06431650509028142
1.4926603953154174,0.06431650509028142
1.4946612805638295,0.06431650509028142
1.4966621658122417,0.06431650509028142
1.4986630510606538,0.06431650509028142
1.500663936309066,0.06431650509028142
1.5026648215574778,0.06431650509028142
1.50466570680589,0.06431650509028142
1.506666592054302,0.06431650509028142
1.5086674773027142,0.06431650509028142
1.5106683625511264,0.06431650509028142
1.5126692477995383,0.06431650509028142
1.5146701330479504,0.06431650509028142
1.5166710182963625,0.06431650509028142
1.5186719035447747,0.06431650509028142
1.5206727887931868,0.06431650509028142
1.5226736740415987,0.06431650509028142
1.5246745592900108,0.06431650509028142
1.526675444538423,0.06431650509028142
1.528676329786835,0.06431650509028142
1.5306772150352472,0.06431650509028142
1.5326781002836591,0.06431650509028142
1.5346789855320713,0.06431650509028142
1.5366798707804834,0.06431650509028142
1.5386807560288955,0.06431650509028142
1.5406816412773077,0.06431650509028142
1.5426825265257196,0.06431650509028142
1.5446834117741317,0.06431650509028142
1.5466842970225438,0.06431650509028142
1.548685182270956,0.06431650509028142
1.550686067519368,0.06431650509028142
1.55268695276778,0.06431650509028142
1.5546878380161921,0.06431650509028142
1.5566887232646043,0.06431650509028142
1.5586896085130164,0.06431650509028142
1.5606904937614285,0.06431650509028142
1.5626913790098405,0.06431650509028142
1.5646922642582526,0.06431650509028142
1.5666931495066647,0.06431650509028142
1.5686940347550768,0.06431650509028142
1.570694920003489,0.06431650509028142
1.572695805251901,0.06431650509028142
1.574696690500313,0.06431650509028142
1.5766975757487252,0.06431650509028142
1.5786984609971373,0.06431650509028142
1.5806993462455494,0.06431650509028142
1.5827002314939613,0.06431650509028142
1.5847011167423735,0.06431650509028142
1.5867020019907856,0.06431650509028142
1.5887028872391977,0.06431650509028142
1.5907037724876099,0.06431650509028142
1.5927046577360218,0.06431650509028142
1.594705542984434,0.06431650509028142
1.596706428232846,0.11577173965040588
1.5987073134812582,0.16796627355764127
1.6007081987296703,0.10293750298424875
1.6027090839780822,0.06431650509028142
1.6047099692264943,0.06431650509028142
1.6067108544749065,0.06431650509028142
1.6087117397233186,0.06431650509028142
1.6107126249717307,0.06431650509028142
1.6127135102201426,0.06431650509028142
1.6147143954685548,0.06431650509028142
1.616715280716967,0.06431650509028142
1.618716165965379,0.06431650509028142
1.6207170512137912,0.06431650509028142
1.622717936462203,0.06431650509028142
1.6247188217106152,0.06431650509028142
1.6267197069590273,0.06431650509028142
1.6287205922074395,0.06431650509028142
1.6307214774558516,0.06431650509028142
1.6327223627042635,0.06431650509028142
1.6347232479526757,0.06431650509028142
1.6367241332010878,0.06431650509028142
1.6387250184495,0.06431650509028142
1.640725903697912,0.06431650509028142
1.642726788946324,0.06431650509028142
1.644727674194736,0.06431650509028142
1.6467285594431482,0.06431650509028142
1.6487294446915604,0.06431650509028142
1.6507303299399725,0.06431650509028142
1.6527312151883844,0.06431650509028142
1.6547321004367965,0.06431650509028142
1.6567329856852087,0.06431650509028142
1.6587338709336208,0.06431650509028142
1.660734756182033,0.06431650509028142
1.6627356414304448,0.06431650509028142
1.664736526678857,0.06431650509028142
1.666737411927269,0.06431650509028142
1.6687382971756812,0.06431650509028142
1.6707391824240934,0.06431650509028142
1.6727400676725053,0.06431650509028142
1.6747409529209174,0.06431650509028142
1.6767418381693295,0.06431650509028142
1.6787427234177417,0.06431650509028142
1.6807436086661538,0.06431650509028142
1.6827444939145657,0.06431650509028142
1.6847453791629778,0.06431650509028142
1.68674626441139,0.06431650509028142
1.688747149659802,0.06431650509028142
1.6907480349082142,0.06431650509028142
1.6927489201566261,0.06431650509028142
1.6947498054050383,0.06431650509028142
1.6967506906534504,0.06431650509028142
1.6987515759018625,0.06431650509028142
1.7007524611502747,0.06431650509028142
1.7027533463986866,0.06431650509028142
1.7047542316470987,0.06431650509028142
1.7067551168955108,0.06431650509028142
1.708756002143923,0.06431650509028142
1.7107568873923351,0.06431650509028142
1.712757772640747,0.06431650509028142
1.7147586578891592,0.06431650509028142
1.7167595431375713,0.06431650509028142
1.7187604283859834,0.06431650509028142
1.7207613136343956,0.06431650509028142
1.7227621988828075,0.06431650509028142
1.7247630841312196,0.06431650509028142
1.7267639693796317,0.06431650509028142
1.7287648546280439,0.06431650509028142
1.730765739876456,0.07002389605012116
1.732766625124868,0.13505266662350657
1.73476751037328,0.14868534658454324
1.7367683956216922,0.08365657601114629
1.7387692808701043,0.06431650509028142
1.7407701661185164,0.06431650509028142
1.7427710513669283,0.06431650509028142
1.7447719366153405,0.06431650509028142
1.7467728218637526,0.06431650509028142
1.7487737071121647,0.06431650509028142
1.7507745923605769,0.06431650509028142
1.7527754776089888,0.06431650509028142
1.754776362857401,0.06431650509028142
1.756777248105813,0.06431650509028142
1.7587781333542252,0.06431650509028142
1.7607790186026373,0.06431650509028142
1.7627799038510492,0.06431650509028142
1.7647807890994613,0.06431650509028142
1.7667816743478735,0.06431650509028142
1.7687825595962856,0.06431650509028142
1.7707834448446977,0.06431650509028142
1.7727843300931097,0.06431650509028142
1.7747852153415218,0.06431650509028142
1.776786100589934,0.06431650509028142
1.778786985838346,0.06431650509028142
1.7807878710867582,0.06431650509028142
1.78278875633517,0.06431650509028142
1.7847896415835822,0.06431650509028142
1.7867905268319944,0.06431650509028142
1.7887914120804065,0.06431650509028142
1.7907922973288186,0.06431650509028142
1.7927931825772307,0.06431650509028142
1.7947940678256427,0.06431650509028142
1.7967949530740548,0.06431650509028142
1.798795838322467,0.06431650509028142
1.800796723570879,0.06431650509028142
1.8027976088192912,0.06431650509028142
1.804798494067703,0.06431650509028142
1.8067993793161152,0.06431650509028142
1.8088002645645274,0.06431650509028142
1.8108011498129395,0.06431650509028142
1.8128020350613516,0.06431650509028142
1.8148029203097635,0.06431650509028142
1.8168038055581757,0.06431650509028142
1.8188046908065878,0.06431650509028142
1.820805576055,0.06431650509028142
1.822806461303412,0.06431650509028142
1.824807346551824,0.06431650509028142
1.826808231800236,0.06431650509028142
1.8288091170486482,0.06431650509028142
1.8308100022970604,0.06431650509028142
1.8328108875454725,0.06431650509028142
1.8348117727938844,0.06431650509028142
1.8368126580422965,0.06431650509028142
1.8388135432907087,0.06431650509028142
1.8408144285391208,0.06431650509028142
1.842815313787533,0.08059018979599974
1.8448161990359448,0.15062117349041904
1.846817084284357,0.1828500754907556
1.8488179695327691,0.1828500754907556
1.8508188547811812,0.1828500754907556
1.8528197400295934,0.17202218351434695
1.8548206252780053,0.10199119981992766
1.8568215105264174,0.06431650509028142
1.8588223957748296,0.06431650509028142
1.8608232810232417,0.06431650509028142
1.8628241662716538,0.06931416867688034
1.8648250515200657,0.1343429392502653
1.8668259367684779,0.14939507395778406
1.86882682201689,0.08436630338438711
1.8708277072653021,0.06431650509028142
1.8728285925137143,0.06431650509028142
1.8748294777621262,0.06431650509028142
1.8768303630105383,0.06431650509028142
1.8788312482589504,0.06431650509028142
1.8808321335073626,0.06431650509028142
1.8828330187557747,0.06431650509028142
1.8848339040041866,0.06431650509028142
1.8868347892525987,0.06431650509028142
1.8888356745010109,0.06431650509028142
1.890836559749423,0.06431650509028142
1.8928374449978351,0.06431650509028142
1.894838330246247,0.06431650509028142
1.8968392154946592,0.06431650509028142
1.8988401007430713,0.06431650509028142
1.9008409859914834,0.06431650509028142
1.9028418712398956,0.06431650509028142
1.9048427564883075,0.06431650509028142
1.9068436417367196,0.06431650509028142
1.9088445269851317,0.06431650509028142
1.9108454122335439,0.06431650509028142
1.912846297481956,0.06431650509028142
1.914847182730368,0.06431650509028142
1.91684806797878,0.06431650509028142
1.9188489532271922,0.06431650509028142
1.9208498384756043,0.06431650509028142
1.9228507237240164,0.06431650509028142
1.9248516089724284,0.06431650509028142
1.9268524942208405,0.06431650509028142
1.9288533794692526,0.06431650509028142
1.9308542647176647,0.06431650509028142
1.9328551499660769,0.06431650509028142
1.9348560352144888,0.06431650509028142
1.936856920462901,0.06431650509028142
1.938857805711313,0.06431650509028142
1.9408586909597252,0.06431650509028142
1.9428595762081373,0.06431650509028142
1.9448604614565492,0.06431650509028142
1.9468613467049614,0.06431650509028142
1.9488622319533735,0.06431650509028142
1.9508631172017856,0.06431650509028142
1.9528640024501978,0.06431650509028142
1.9548648876986097,0.06431650509028142
1.9568657729470218,0.06431650509028142
1.958866658195434,0.06431650509028142
1.960867543443846,0.06431650509028142
1.9628684286922582,0.06431650509028142
1.96486931394067,0.06431650509028142
1.9668701991890822,0.06431650509028142
1.9688710844374944,0.06431650509028142
1.9708719696859065,0.06431650509028142
1.9728728549343186,0.06431650509028142
1.9748737401827305,0.06431650509028142
1.9768746254311427,0.06431650509028142
1.9788755106795548,0.06431650509028142
1.980876395927967,0.06431650509028142
1.982877281176379,0.06431650509028142
1.984878166424791,0.06431650509028142
1.9868790516732031,0.06431650509028142
1.9888799369216152,0.06431650509028142
1.9908808221700274,0.06431650509028142
1.9928817074184395,0.06431650509028142
1.9948825926668514,0.06431650509028142
1.9968834779152635,0.06431650509028142
1.9988843631636757,0.08859509564997836
2.0008852484120876,0.15362386622336777
2.0028861336604997,0.1301141469846847
2.004887018908912,0.06508537641129664
2.006887904157324,0.06431650509028142
2.008888789405736,0.06431650509028142
2.0108896746541483,0.06431650509028142
2.0128905599025604,0.06431650509028142
2.0148914451509725,0.06431650509028142
2.0168923303993846,0.06431650509028142
2.0188932156477963,0.06431650509028142
2.0208941008962085,0.06431650509028142
2.0228949861446206,0.06431650509028142
2.0248958713930327,0.06431650509028142
2.026896756641445,0.06431650509028142
2.028897641889857,0.06431650509028142
2.030898527138269,0.06431650509028142
2.0328994123866813,0.06431650509028142
2.0349002976350934,0.06431650509028142
2.0369011828835055,0.06431650509028142
2.038902068131917,0.06431650509028142
2.0409029533803293,0.06431650509028142
2.0429038386287415,0.06431650509028142
2.0449047238771536,0.06431650509028142
2.0469056091255657,0.06431650509028142
2.048906494373978,0.06431650509028142
2.05090737962239,0.06431650509028142
2.052908264870802,0.08476211288103075
2.0549091501192143,0.1547930965754487
2.0569100353676264,0.1828500754907556
2.0589109206160385,0.1828500754907556
2.06091180586445,0.1828500754907556
2.0629126911128624,0.1828500754907556
2.0649135763612745,0.1828500754907556
2.0669144616096866,0.1828500754907556
2.0689153468580987,0.1828500754907556
2.070916232106511,0.1828500754907556
2.072917117354923,0.16101231016016682
2.074918002603335,0.0009414902871904829
2.0769188878517473,-0.0836434540931128
2.0789197731001594,-0.07363902785105303
2.080920658348571,-0.04108710890519607
2.0829215435969832,-0.003416963709989229
2.0849224288453954,-0.003416963709989229
2.0869233140938075,-0.003416963709989229
2.0889241993422196,-0.003416963709989229
2.0909250845906318,-0.003416963709989229
2.092925969839044,-0.003416963709989229
2.094926855087456,-0.003416963709989229
2.096927740335868,-0.003416963709989229
2.0989286255842803,-0.003416963709989229
2.100929510832692,-0.003416963709989229
2.102930396081104,-0.003416963709989229
2.1049312813295162,-0.003416963709989229
2.1069321665779284,-0.003416963709989229
2.1089330518263405,-0.003416963709989229
2.1109339370747526,-0.006007923575771734
2.1129348223231648,-0.01101013669680162
2.114935707571577,-0.01601234981783195
2.116936592819989,-0.023671491054083837
2.118937478068401,-0.048682556659236376
2.120938363316813,-0.02965412884775631
2.122939248565225,0.0453790679677013
2.124940133813637,0.06431650509028142
2.1269410190620492,0.06376601142257332
2.1289419043104614,0.05376158518051222
2.1309427895588735,0.04738313789021387
2.1329436748072856,0.04738313789021387
2.1349445600556978,0.04403240577230605
2.13694544530411,0.03903019265127616
2.138946330552522,0.02913950477031113
2.1409472158009337,0.014863065685462029
2.142948101049346,-0.010147999919690509
2.144948986297758,-0.023312077833014477
2.14694987154617,-0.028314290954044807
2.1489507567945823,-0.04231548320504208
2.1509516420429944,-0.05732212256813218
2.1529525272914065,-0.07232876193122362
2.1549534125398186,-0.08733540129431505
2.156954297788231,-0.10234204065740693
2.158955183036643,-0.10912767128042944
2.1609560682850546,-0.11348385051042964
2.1629569535334667,-0.11348385051042964
2.164957838781879,-0.11130007397737396
2.166958724030291,-0.10629786085634363
2.168959609278703,-0.09757412856023029
2.1709604945271153,-0.08756970231816918
2.1729613797755274,-0.07756527607610941
2.1749622650239395,-0.06576605849594364
2.1769631502723517,-0.0507594191328522
2.178964035520764,-0.039085313749893213
2.1809649207691755,-0.02908088750783433
2.1829658060175876,-0.004465631399300118
2.1849666912659997,0.014922209633232875
2.186967576514412,0.019924422754263205
2.188968461762824,0.027870184660475417
2.190969347011236,0.03787461090253652
2.1929702322596483,0.04339774571738886
2.1949711175080604,0.04941677978662451
2.1969720027564725,0.05942120602868384
2.1989728880048847,0.06431650509028142
2.2009737732532964,0.06431650509028142
2.2029746585017085,0.06431650509028142
2.2049755437501206,0.06431650509028142
2.2069764289985327,0.06431650509028142
2.208977314246945,0.059985348299719465
2.210978199495357,0.049980922057659694
2.212979084743769,0.04738313789021387
2.2149799699921813,0.04738313789021387
2.2169808552405934,0.04738313789021387
2.2189817404890055,0.04738313789021387
2.2209826257374172,0.04738313789021387
2.2229835109858294,0.04738313789021387
2.2249843962342415,0.04738313789021387
2.2269852814826536,0.04738313789021387
2.2289861667310658,0.04738313789021387
2.230987051979478,0.04738313789021387
2.23298793722789,0.04738313789021387
2.234988822476302,0.04738313789021387
2.2369897077247143,0.04738313789021387
2.2389905929731264,0.04738313789021387
2.240991478221538,0.04738313789021387
2.2429923634699502,0.04738313789021387
2.2449932487183624,0.04738313789021387
2.2469941339667745,0.04738313789021387
2.2489950192151866,0.04860241312117086
2.2509959044635988,0.058606839363231966
2.252996789712011,0.06431650509028142
2.254997674960423,0.06431650509028142
2.256998560208835,0.06431650509028142
2.2589994454572473,0.06431650509028142
2.261000330705659,0.06431650509028142
2.263001215954071,0.08717564090348917
2.2650021012024832,0.15220441147688613
2.2670029864508954,0.13153360173116635
2.2690038716993075,0.06650483115777828
2.2710047569477196,0.06431650509028142
2.2730056421961318,0.06431650509028142
2.275006527444544,0.06431650509028142
2.277007412692956,0.06431650509028142
2.279008297941368,0.06431650509028142
2.28100918318978,0.06431650509028142
2.283010068438192,0.06431650509028142
2.285010953686604,0.06431650509028142
2.2870118389350163,0.06431650509028142
2.2890127241834284,0.06431650509028142
2.2910136094318405,0.06431650509028142
2.2930144946802526,0.06431650509028142
2.295015379928665,0.06431650509028142
2.297016265177077,0.06431650509028142
2.299017150425489,0.06431650509028142
2.3010180356739007,0.06431650509028142
2.303018920922313,0.06431650509028142
2.305019806170725,0.06431650509028142
2.307020691419137,0.06431650509028142
2.3090215766675493,0.06431650509028142
2.3110224619159614,0.06431650509028142
2.3130233471643735,0.06431650509028142
2.3150242324127857,0.06431650509028142
2.317025117661198,0.06431650509028142
2.31902600290961,0.06431650509028142
2.3210268881580216,0.06431650509028142
2.3230277734064337,0.06431650509028142
2.325028658654846,0.06431650509028142
2.327029543903258,0.06431650509028142
2.32903042915167,0.06431650509028142
2.3310313144000823,0.06431650509028142
2.3330321996484944,0.06431650509028142
2.3350330848969065,0.06431650509028142
2.3370339701453187,0.06431650509028142
2.339034855393731,0.06431650509028142
2.3410357406421425,0.06431650509028142
2.3430366258905546,0.06431650509028142
2.3450375111389667,0.06431650509028142
2.347038396387379,0.06431650509028142
2.349039281635791,0.06431650509028142
2.351040166884203,0.06431650509028142
2.3530410521326153,0.06431650509028142
2.3550419373810274,0.06431650509028142
2.3570428226294395,0.06431650509028142
2.3590437078778517,0.06431650509028142
2.3610445931262634,0.06431650509028142
2.3630454783746755,0.06431650509028142
2.3650463636230876,0.06431650509028142
2.3670472488714998,0.06431650509028142
2.369048134119912,0.06431650509028142
2.371049019368324,0.06431650509028142
2.373049904616736,0.06431650509028142
2.3750507898651483,0.06431650509028142
2.3770516751135604,0.06431650509028142
2.3790525603619725,0.06431650509028142
2.3810534456103842,0.06431650509028142
2.3830543308587964,0.06431650509028142
2.3850552161072085,0.06431650509028142
2.3870561013556206,0.06431650509028142
2.3890569866040328,0.06431650509028142
2.391057871852445,0.06431650509028142
2.393058757100857,0.06431650509028142
2.395059642349269,0.06431650509028142
2.3970605275976813,0.06431650509028142
2.3990614128460934,0.10645656787660318
2.401062298094505,0.17148533844997704
2.4030631833429172,0.11225267475807055
2.4050640685913294,0.06431650509028142
2.4070649538397415,0.06431650509028142
2.4090658390881536,0.06431650509028142
2.4110667243365658,0.06431650509028142
2.413067609584978,0.06431650509028142
2.41506849483339,0.06431650509028142
2.417069380081802,0.06431650509028142
2.4190702653302143,0.06431650509028142
2.421071150578626,0.06431650509028142
2.423072035827038,0.06431650509028142
2.4250729210754502,0.06431650509028142
2.4270738063238624,0.06431650509028142
2.4290746915722745,0.06431650509028142
2.4310755768206866,0.06431650509028142
2.4330764620690988,0.06431650509028142
2.435077347317511,0.06431650509028142
2.437078232565923,0.06431650509028142
2.439079117814335,0.06431650509028142
2.441080003062747,0.06431650509028142
2.443080888311159,0.06431650509028142
2.445081773559571,0.06431650509028142
2.4470826588079833,0.06431650509028142
2.4490835440563954,0.06431650509028142
2.4510844293048075,0.06431650509028142
2.4530853145532197,0.06431650509028142
2.455086199801632,0.06431650509028142
2.457087085050044,0.06431650509028142
2.459087970298456,0.06431650509028142
2.4610888555468677,0.06431650509028142
2.46308974079528,0.06431650509028142
2.465090626043692,0.06431650509028142
2.467091511292104,0.06431650509028142
2.4690923965405163,0.06431650509028142
2.4710932817889284,0.06431650509028142
2.4730941670373405,0.06431650509028142
2.4750950522857527,0.06431650509028142
2.477095937534165,0.06431650509028142
2.479096822782577,0.06431650509028142
2.4810977080309886,0.06431650509028142
2.4830985932794007,0.06431650509028142
2.485099478527813,0.06431650509028142
2.487100363776225,0.06431650509028142
2.489101249024637,0.06431650509028142
2.4911021342730493,0.06431650509028142
2.4931030195214614,0.06431650509028142
2.4951039047698735,0.06431650509028142
2.4971047900182857,0.06431650509028142
2.499105675266698,0.06431650509028142
2.5011065605151095,0.06431650509028142
2.5031074457635216,0.06431650509028142
2.5051083310119338,0.06431650509028142
2.507109216260346,0.06431650509028142
2.509110101508758,0.06431650509028142
2.51111098675717,0.06431650509028142
2.5131118720055823,0.06431650509028142
2.5151127572539944,0.06431650509028142
2.5171136425024065,0.06431650509028142
2.5191145277508187,0.06431650509028142
2.5211154129992304,0.06431650509028142
2.5231162982476425,0.06431650509028142
2.5251171834960546,0.06431650509028142
2.5271180687444668,0.06431650509028142
2.529118953992879,0.06431650509028142
2.531119839241291,0.00376447640963562
2.533120724489703,-0.09127757288993177
2.5351216097381153,-0.1957690052294212
2.5371224949865274,-0.27435083891107315
2.5391233802349396,-0.27435083891107315
2.5411242654833512,-0.27435083891107315
2.5431251507317634,-0.27435083891107315
2.5451260359801755,-0.27435083891107315
2.5471269212285876,-0.27435083891107315
2.5491278064769998,-0.27435083891107315
2.551128691725412,-0.27435083891107315
2.553129576973824,-0.27435083891107315
2.555130462222236,-0.27435083891107315
2.5571313474706483,-0.27435083891107315
2.5591322327190604,-0.27435083891107315
2.561133117967472,-0.27435083891107315
2.5631340032158842,-0.27435083891107315
2.5651348884642964,-0.27435083891107315
2.5671357737127085,-0.27435083891107315
2.5691366589611206,-0.27435083891107315
2.5711375442095328,-0.27435083891107315
2.573138429457945,-0.27435083891107315
2.575139314706357,-0.27435083891107315
2.577140199954769,-0.27435083891107315
2.5791410852031813,-0.27435083891107315
2.5811419704515934,-0.27435083891107315
2.583142855700005,-0.27435083891107315
2.5851437409484173,-0.27435083891107315
2.5871446261968294,-0.27435083891107315
2.5891455114452415,-0.27435083891107315
2.5911463966936537,-0.27435083891107315
2.593147281942066,-0.27435083891107315
2.595148167190478,-0.27435083891107315
2.59714905243889,-0.27435083891107315
2.599149937687302,-0.27435083891107315
2.6011508229357143,-0.27435083891107315
2.603151708184126,-0.27435083891107315
2.605152593432538,-0.27435083891107315
2.6071534786809503,-0.27435083891107315
2.6091543639293624,-0.27435083891107315
2.6111552491777745,-0.27435083891107315
2.6131561344261867,-0.27435083891107315
2.615157019674599,-0.27435083891107315
2.617157904923011,-0.27435083891107315
2.619158790171423,-0.27435083891107315
2.621159675419835,-0.27435083891107315
2.623160560668247,-0.27435083891107315
2.625161445916659,-0.27435083891107315
2.627162331165071,-0.27435083891107315
2.6291632164134833,-0.27435083891107315
2.6311641016618954,-0.27435083891107315
2.6331649869103075,-0.27435083891107315
2.6351658721587197,-0.27435083891107315
2.637166757407132,-0.27435083891107315
2.639167642655544,-0.27435083891107315
2.641168527903956,-0.27435083891107315
2.6431694131523678,-0.27435083891107315
2.64517029840078,-0.27435083891107315
2.647171183649192,-0.27435083891107315
2.649172068897604,-0.27435083891107315
2.6511729541460163,-0.27435083891107315
2.6531738393944284,-0.27435083891107315
2.6551747246428405,-0.27435083891107315
2.6571756098912527,-0.27435083891107315
2.659176495139665,-0.27435083891107315
2.661177380388077,-0.27435083891107315
2.6631782656364886,-0.16471843265000485
2.6651791508849008,0.010359026586040265
2.667180036133313,0.04533357262325399
2.669180921381725,0.06431650509028142
2.671181806630137,0.06431650509028142
2.6731826918785493,0.06431650509028142
2.6751835771269614,0.06431650509028142
2.6771844623753736,0.06431650509028142
2.6791853476237857,0.06431650509028142
2.681186232872198,0.06431650509028142
2.6831871181206095,0.06431650509028142
2.6851880033690216,0.06431650509028142
2.6871888886174338,0.06431650509028142
2.689189773865846,0.06431650509028142
2.691190659114258,0.06431650509028142
2.69319154436267,0.06431650509028142
2.6951924296110823,0.06431650509028142
2.6971933148594944,0.06431650509028142
2.6991942001079066,0.06431650509028142
2.7011950853563187,0.06431650509028142
2.7031959706047304,0.06431650509028142
2.7051968558531425,0.06431650509028142
2.7071977411015546,0.06431650509028142
2.7091986263499668,0.06431650509028142
2.711199511598379,0.06431650509028142
2.713200396846791,0.06431650509028142
2.715201282095203,0.06431650509028142
2.7172021673436153,0.06431650509028142
2.7192030525920274,0.06431650509028142
2.7212039378404396,0.06431650509028142
2.7232048230888513,0.06431650509028142
2.7252057083372634,0.06431650509028142
2.7272065935856755,0.06431650509028142
2.7292074788340877,0.06431650509028142
2.7312083640825,0.06431650509028142
2.733209249330912,0.06431650509028142
2.735210134579324,0.06431650509028142
2.737211019827736,0.06431650509028142
2.7392119050761483,0.06431650509028142
2.7412127903245604,0.06431650509028142
2.743213675572972,0.06431650509028142
2.7452145608213843,0.06431650509028142
2.7472154460697964,0.06431650509028142
2.7492163313182085,0.06431650509028142
2.7512172165666207,0.06431650509028142
2.753218101815033,0.06431650509028142
2.755218987063445,0.06431650509028142
2.757219872311857,0.06431650509028142
2.759220757560269,0.06431650509028142
2.7612216428086813,0.06431650509028142
2.763222528057093,0.06431650509028142
2.765223413305505,0.06431650509028142
2.7672242985539173,0.06431650509028142
2.7692251838023294,0.06431650509028142
2.7712260690507415,0.06431650509028142
2.7732269542991537,0.06431650509028142
2.775227839547566,0.06431650509028142
2.777228724795978,0.06431650509028142
2.77922961004439,0.06431650509028142
2.781230495292802,0.06431650509028142
2.783231380541214,0.06431650509028142
2.785232265789626,0.06431650509028142
2.787233151038038,0.06431650509028142
2.7892340362864503,0.06431650509028142
2.7912349215348624,0.06431650509028142
2.7932358067832745,0.06431650509028142
2.7952366920316867,0.06431650509028142
2.797237577280099,0.06431650509028142
2.799238462528511,0.018161478157253885
2.801239347776923,-0.054881297339039126
2.8032402330253348,-0.20494769096992105
2.805241118273747,-0.27435083891107315
2.807242003522159,-0.27435083891107315
2.809242888770571,-0.27435083891107315
2.8112437740189833,-0.27435083891107315
2.8132446592673954,-0.27435083891107315
2.8152455445158076,-0.27435083891107315
2.8172464297642197,-0.27435083891107315
2.819247315012632,-0.27435083891107315
2.821248200261044,-0.27435083891107315
2.8232490855094556,-0.27435083891107315
2.8252499707578678,-0.27435083891107315
2.82725085600628,-0.27435083891107315
2.829251741254692,-0.27435083891107315
2.831252626503104,-0.27435083891107315
2.8332535117515163,-0.27435083891107315
2.8352543969999284,-0.27435083891107315
2.8372552822483406,-0.27435083891107315
2.8392561674967527,-0.27435083891107315
2.841257052745165,-0.27435083891107315
2.8432579379935765,-0.27435083891107315
2.8452588232419886,-0.27435083891107315
2.8472597084904008,-0.27435083891107315
2.849260593738813,-0.27435083891107315
2.851261478987225,-0.27435083891107315
2.853262364235637,-0.27435083891107315
2.8552632494840493,-0.27435083891107315
2.8572641347324614,-0.27435083891107315
2.8592650199808736,-0.27435083891107315
2.8612659052292857,-0.27435083891107315
2.8632667904776974,-0.27435083891107315
2.8652676757261095,-0.27435083891107315
2.8672685609745217,-0.27435083891107315
2.869269446222934,-0.27435083891107315
2.871270331471346,-0.27435083891107315
2.873271216719758,-0.27435083891107315
2.87527210196817,-0.27435083891107315
2.8772729872165823,-0.27435083891107315
2.8792738724649944,-0.27435083891107315
2.8812747577134066,-0.27435083891107315
2.8832756429618183,-0.27435083891107315
2.8852765282102304,-0.27435083891107315
2.8872774134586425,-0.27435083891107315
2.8892782987070547,-0.27435083891107315
2.891279183955467,-0.27435083891107315
2.893280069203879,-0.27435083891107315
2.895280954452291,-0.27435083891107315
2.897281839700703,-0.27435083891107315
2.8992827249491153,-0.27435083891107315
2.9012836101975275,-0.27435083891107315
2.903284495445939,-0.27435083891107315
2.9052853806943513,-0.27435083891107315
2.9072862659427634,-0.27435083891107315
2.9092871511911755,-0.27435083891107315
2.9112880364395877,-0.27435083891107315
2.913288921688,-0.27435083891107315
2.915289806936412,-0.27435083891107315
2.917290692184824,-0.27435083891107315
2.919291577433236,-0.27435083891107315
2.9212924626816483,-0.27435083891107315
2.92329334793006,-0.27435083891107315
2.925294233178472,-0.27435083891107315
2.9272951184268843,-0.27435083891107315
2.9292960036752964,-0.27435083891107315
2.9312968889237085,-0.2561072057911691
2.9332977741721207,-0.2448698557148279
2.935298659420533,-0.2648787081989501
2.937299544668945,-0.27435083891107315
2.939300429917357,-0.27435083891107315
2.941301315165769,-0.27435083891107315
2.943302200414181,-0.27435083891107315
2.945303085662593,-0.27435083891107315
2.947303970911005,-0.27435083891107315
2.9493048561594173,-0.27435083891107315
2.9513057414078294,-0.27435083891107315
2.9533066266562416,-0.27435083891107315
2.9553075119046537,-0.27435083891107315
2.957308397153066,-0.27435083891107315
2.959309282401478,-0.27435083891107315
2.96131016764989,-0.27435083891107315
2.9633110528983018,-0.27435083891107315
2.965311938146714,-0.27435083891107315
2.967312823395126,-0.27435083891107315
2.969313708643538,-0.27435083891107315
2.9713145938919503,-0.27435083891107315
2.9733154791403624,-0.27435083891107315
2.9753163643887746,-0.27435083891107315
2.9773172496371867,-0.27435083891107315
2.979318134885599,-0.27435083891107315
2.981319020134011,-0.27435083891107315
2.9833199053824226,-0.27435083891107315
2.9853207906308348,-0.27435083891107315
2.987321675879247,-0.27435083891107315
2.989322561127659,-0.27435083891107315
2.991323446376071,-0.27435083891107315
2.9933243316244833,-0.27435083891107315
2.9953252168728954,-0.27435083891107315
2.9973261021213076,-0.27435083891107315
2.9993269873697197,-0.27435083891107315
3.001327872618132,-0.27435083891107315
3.0033287578665435,-0.27435083891107315
3.0053296431149557,-0.27435083891107315
3.007330528363368,-0.27435083891107315
3.00933141361178,-0.27435083891107315
3.011332298860192,-0.27435083891107315
3.013333184108604,-0.27435083891107315
3.0153340693570163,-0.27435083891107315
3.0173349546054284,-0.27435083891107315
3.0193358398538406,-0.27435083891107315
3.0213367251022527,-0.27435083891107315
3.0233376103506644,-0.27435083891107315
3.0253384955990765,-0.27435083891107315
3.0273393808474887,-0.27435083891107315
3.029340266095901,-0.27435083891107315
3.031341151344313,-0.27435083891107315
3.033342036592725,-0.27435083891107315
3.035342921841137,-0.27435083891107315
3.0373438070895493,-0.27435083891107315
3.0393446923379615,-0.27435083891107315
3.0413455775863736,-0.27435083891107315
3.0433464628347853,-0.27435083891107315
3.0453473480831974,-0.27435083891107315
3.0473482333316095,-0.27435083891107315
3.0493491185800217,-0.27435083891107315
3.051350003828434,-0.27435083891107315
3.053350889076846,-0.27435083891107315
3.055351774325258,-0.27435083891107315
3.05735265957367,-0.27435083891107315
3.0593535448220823,-0.27435083891107315
3.0613544300704945,-0.27435083891107315
3.063355315318906,-0.27435083891107315
3.0653562005673183,-0.23788632034346913
3.0673570858157304,-0.06280886110740136
3.0693579710641425,0.034881017238475476
3.0713588563125547,0.05989208284362446
3.073359741560967,0.06431650509028142
3.075360626809379,0.06431650509028142
3.077361512057791,0.06431650509028142
3.079362397306203,0.06431650509028142
3.0813632825546153,0.06431650509028142
3.0833641678030275,0.06431650509028142
3.085365053051439,0.06431650509028142
3.0873659382998513,0.06431650509028142
3.0893668235482634,0.06431650509028142
3.0913677087966756,0.06431650509028142
3.0933685940450877,0.06431650509028142
3.0953694792935,0.06431650509028142
3.097370364541912,0.06431650509028142
3.099371249790324,0.06431650509028142
3.101372135038736,0.06431650509028142
3.1033730202871483,0.06431650509028142
3.10537390553556,0.06431650509028142
3.107374790783972,0.06431650509028142
3.1093756760323843,0.06431650509028142
3.1113765612807964,0.06431650509028142
3.1133774465292086,0.06431650509028142
3.1153783317776207,0.06431650509028142
3.117379217026033,0.06431650509028142
3.119380102274445,0.06431650509028142
3.121380987522857,0.06431650509028142
3.123381872771269,0.06431650509028142
3.125382758019681,0.06431650509028142
3.127383643268093,0.06431650509028142
3.129384528516505,0.06431650509028142
3.1313854137649173,0.06431650509028142
3.1333862990133294,0.06431650509028142
3.1353871842617416,0.06431650509028142
3.1373880695101537,0.06431650509028142
3.139388954758566,0.06431650509028142
3.141389840006978,0.06431650509028142
3.14339072525539,0.06431650509028142
3.145391610503802,0.06431650509028142
3.147392495752214,0.06431650509028142
3.149393381000626,0.06431650509028142
3.151394266249038,0.06431650509028142
3.1533951514974503,0.06431650509028142
3.1553960367458624,0.06431650509028142
3.1573969219942746,0.06431650509028142
3.1593978072426867,0.06431650509028142
3.161398692491099,0.06431650509028142
3.163399577739511,0.06431650509028142
3.1654004629879227,0.06431650509028142
3.167401348236335,0.06431650509028142
3.169402233484747,0.06431650509028142
3.171403118733159,0.06431650509028142
3.173404003981571,0.06431650509028142
3.1754048892299833,0.06431650509028142
3.1774057744783955,0.06431650509028142
3.1794066597268076,0.06431650509028142
3.1814075449752197,0.06431650509028142
3.183408430223632,0.06431650509028142
3.1854093154720435,0.06431650509028142
3.1874102007204557,0.06431650509028142
3.189411085968868,0.06431650509028142
3.19141197121728,0.06431650509028142
3.193412856465692,0.06431650509028142
3.195413741714104,0.06431650509028142
3.1974146269625163,0.06530375406460154
3.1994155122109285,0.07030596718563187
3.2014163974593406,0.07025819707396819
3.2034172827077527,0.0652559839529383
3.2054181679561644,0.06431650509028142
3.2074190532045765,0.06431650509028142
3.2094199384529887,0.06431650509028142
3.211420823701401,0.06431650509028142
3.213421708949813,0.06431650509028142
3.215422594198225,0.06431650509028142
3.217423479446637,0.06431650509028142
3.2194243646950493,0.06431650509028142
3.2214252499434615,0.06431650509028142
3.2234261351918736,0.06431650509028142
3.2254270204402853,0.06431650509028142
3.2274279056886974,0.06431650509028142
3.2294287909371096,0.06431650509028142
3.2314296761855217,0.06431650509028142
3.233430561433934,0.06431650509028142
3.235431446682346,0.06431650509028142
3.237432331930758,0.06431650509028142
3.23943321717917,0.06431650509028142
3.2414341024275823,0.06431650509028142
3.2434349876759945,0.06431650509028142
3.245435872924406,0.06431650509028142
3.2474367581728183,0.06431650509028142
3.2494376434212304,0.06431650509028142
3.2514385286696426,0.06431650509028142
3.2534394139180547,0.06431650509028142
3.255440299166467,0.06431650509028142
3.257441184414879,0.06431650509028142
3.259442069663291,0.06431650509028142
3.261442954911703,0.06431650509028142
3.2634438401601154,0.06431650509028142
3.265444725408527,0.06431650509028142
3.267445610656939,0.06431650509028142
3.2694464959053513,0.06431650509028142
3.2714473811537634,0.06431650509028142
3.2734482664021756,0.06431650509028142
3.2754491516505877,0.06431650509028142
3.277450036899,0.06431650509028142
3.279450922147412,0.06431650509028142
3.281451807395824,0.06431650509028142
3.2834526926442362,0.06431650509028142
3.285453577892648,0.06431650509028142
3.28745446314106,0.06431650509028142
3.289455348389472,0.06431650509028142
3.2914562336378843,0.06431650509028142
3.2934571188862964,0.06431650509028142
3.2954580041347086,0.06431650509028142
3.2974588893831207,0.06431650509028142
3.299459774631533,0.06431650509028142
3.301460659879945,0.06431650509028142
3.303461545128357,0.06431650509028142
3.305462430376769,0.06431650509028142
3.307463315625181,0.06431650509028142
3.309464200873593,0.06431650509028142
3.311465086122005,0.06431650509028142
3.3134659713704173,0.06431650509028142
3.3154668566188294,0.06431650509028142
3.3174677418672416,0.06431650509028142
3.3194686271156537,0.06431650509028142
3.321469512364066,0.06431650509028142
3.323470397612478,0.06431650509028142
3.3254712828608897,0.06431650509028142
3.327472168109302,0.06431650509028142
3.329473053357714,0.0764410143831955
3.331473938606126,0.14146978495659202
3.333474823854538,0.14226822825145913
3.3354757091029503,0.07723945767807061
3.3374765943513625,0.06431650509028142
3.3394774795997746,0.06431650509028142
3.3414783648481867,0.06431650509028142
3.343479250096599,0.06431650509028142
3.3454801353450105,0.06431650509028142
3.3474810205934227,0.06431650509028142
3.349481905841835,0.06431650509028142
3.351482791090247,0.06431650509028142
3.353483676338659,0.06431650509028142
3.355484561587071,0.06431650509028142
3.3574854468354833,0.06431650509028142
3.3594863320838955,0.06431650509028142
3.3614872173323076,0.06431650509028142
3.3634881025807197,0.06431650509028142
3.3654889878291314,0.06431650509028142
3.3674898730775435,0.06431650509028142
3.3694907583259557,0.06431650509028142
3.371491643574368,0.06431650509028142
3.37349252882278,0.06431650509028142
3.375493414071192,0.06431650509028142
3.377494299319604,0.06431650509028142
3.3794951845680163,0.06431650509028142
3.3814960698164285,0.06431650509028142
3.3834969550648406,0.06431650509028142
3.3854978403132523,0.06431650509028142
3.3874987255616644,0.06431650509028142
3.3894996108100766,0.06431650509028142
3.3915004960584887,0.06431650509028142
3.393501381306901,0.06431650509028142
3.395502266555313,0.06431650509028142
3.397503151803725,0.06431650509028142
3.399504037052137,0.06431650509028142
3.4015049223005493,0.06431650509028142
3.4035058075489615,0.06431650509028142
3.405506692797373,0.06431650509028142
3.4075075780457853,0.06431650509028142
3.4095084632941974,0.06431650509028142
3.4115093485426096,0.06431650509028142
3.4135102337910217,0.06431650509028142
3.415511119039434,0.06431650509028142
3.417512004287846,0.06431650509028142
3.419512889536258,0.06431650509028142
3.4215137747846702,0.06431650509028142
3.4235146600330824,0.06431650509028142
3.425515545281494,0.06431650509028142
3.427516430529906,0.06431650509028142
3.4295173157783183,0.06431650509028142
3.4315182010267304,0.06431650509028142
3.4335190862751426,0.06431650509028142
3.4355199715235547,0.06431650509028142
3.437520856771967,0.06431650509028142
3.439521742020379,0.06431650509028142
3.441522627268791,0.06431650509028142
3.4435235125172032,0.06431650509028142
3.445524397765615,0.06431650509028142
3.447525283014027,0.06431650509028142
3.449526168262439,0.06431650509028142
3.4515270535108513,0.06431650509028142
3.4535279387592634,0.06431650509028142
3.4555288240076756,0.06431650509028142
3.4575297092560877,0.06431650509028142
3.4595305945045,0.06431650509028142
3.461531479752912,0.06431650509028142
3.463532365001324,0.06431650509028142
3.465533250249736,0.09572194135629619
3.467534135498148,0.16075071192968426
3.46953502074656,0.12298730127836421
3.471535905994972,0.06431650509028142
3.4735367912433843,0.06431650509028142
3.4755376764917965,0.06431650509028142
3.4775385617402086,0.06431650509028142
3.4795394469886207,0.06431650509028142
3.481540332237033,0.06431650509028142
3.483541217485445,0.06431650509028142
3.4855421027338567,0.06431650509028142
3.487542987982269,0.06431650509028142
3.489543873230681,0.06431650509028142
3.491544758479093,0.06431650509028142
3.493545643727505,0.06431650509028142
3.4955465289759173,0.06431650509028142
3.4975474142243295,0.06431650509028142
3.4995482994727416,0.06431650509028142
3.5015491847211537,0.06431650509028142
3.503550069969566,0.06431650509028142
3.5055509552179775,0.06431650509028142
3.5075518404663897,0.06431650509028142
3.509552725714802,0.06431650509028142
3.511553610963214,0.06431650509028142
3.513554496211626,0.06431650509028142
3.515555381460038,0.06431650509028142
3.5175562667084503,0.06431650509028142
3.5195571519568625,0.06431650509028142
3.5215580372052746,0.06431650509028142
3.5235589224536867,0.06431650509028142
3.5255598077020984,0.06431650509028142
3.5275606929505106,0.06431650509028142
3.5295615781989227,0.06431650509028142
3.531562463447335,0.06431650509028142
3.533563348695747,0.06431650509028142
3.535564233944159,0.06431650509028142
3.537565119192571,0.06431650509028142
3.5395660044409833,0.06431650509028142
3.5415668896893955,0.06431650509028142
3.5435677749378076,0.06431650509028142
3.5455686601862193,0.06431650509028142
3.5475695454346314,0.06431650509028142
3.5495704306830436,0.06431650509028142
3.5515713159314557,0.06431650509028142
3.553572201179868,0.06431650509028142
3.55557308642828,0.06431650509028142
3.557573971676692,0.06431650509028142
3.5595748569251042,0.06431650509028142
3.5615757421735164,0.06431650509028142
3.5635766274219285,0.06431650509028142
3.56557751267034,0.06431650509028142
3.5675783979187523,0.06431650509028142
3.5695792831671644,0.06431650509028142
3.5715801684155766,0.06431650509028142
3.5735810536639887,0.06431650509028142
3.575581938912401,0.06431650509028142
3.577582824160813,0.06431650509028142
3.579583709409225,0.06431650509028142
3.5815845946576372,0.06431650509028142
3.5835854799060494,0.06431650509028142
3.5855863651544615,0.06431650509028142
3.587587250402873,0.06431650509028142
3.5895881356512853,0.06431650509028142
3.5915890208996974,0.06431650509028142
3.5935899061481096,0.06431650509028142
3.5955907913965217,0.06431650509028142
3.597591676644934,0.09501221398306248
3.599592561893346,0.160040984556451
3.601593447141758,0.12369702865159793
3.6035943323901702,0.06431650509028142
3.6055952176385824,0.06431650509028142
3.607596102886994,0.06431650509028142
3.609596988135406,0.06431650509028142
3.6115978733838183,0.06431650509028142
3.6135987586322305,0.06431650509028142
3.6155996438806426,0.06431650509028142
3.6176005291290547,0.06431650509028142
3.619601414377467,0.06431650509028142
3.621602299625879,0.06431650509028142
3.623603184874291,0.06431650509028142
3.6256040701227032,0.06431650509028142
3.627604955371115,0.06431650509028142
3.629605840619527,0.06431650509028142
3.631606725867939,0.06431650509028142
3.6336076111163513,0.06431650509028142
3.6356084963647635,0.06431650509028142
3.6376093816131756,0.06431650509028142
3.6396102668615877,0.06431650509028142
3.64161115211,0.06431650509028142
3.643612037358412,0.06431650509028142
3.645612922606824,0.06431650509028142
3.647613807855236,0.06431650509028142
3.649614693103648,0.06431650509028142
3.65161557835206,0.06431650509028142
3.653616463600472,0.06431650509028142
3.6556173488488843,0.06431650509028142
3.6576182340972965,0.06431650509028142
3.6596191193457086,0.06431650509028142
3.6616200045941207,0.06431650509028142
3.663620889842533,0.06431650509028142
3.665621775090945,0.06431650509028142
3.6676226603393567,0.06431650509028142
3.669623545587769,0.06431650509028142
3.671624430836181,0.06431650509028142
3.673625316084593,0.06431650509028142
3.675626201333005,0.06431650509028142
3.6776270865814173,0.06431650509028142
3.6796279718298295,0.06431650509028142
3.6816288570782416,0.06431650509028142
3.6836297423266537,0.06431650509028142
3.685630627575066,0.06431650509028142
3.6876315128234776,0.06431650509028142
3.6896323980718897,0.06431650509028142
3.691633283320302,0.06431650509028142
3.693634168568714,0.06431650509028142
3.695635053817126,0.06431650509028142
3.6976359390655382,0.06431650509028142
3.6996368243139504,0.06431650509028142
3.7016377095623625,0.06431650509028142
3.7036385948107746,0.06431650509028142
3.7056394800591868,0.06431650509028142
3.7076403653075984,0.06431650509028142
3.7096412505560106,0.06431650509028142
3.7116421358044227,0.06431650509028142
3.713643021052835,0.06431650509028142
3.715643906301247,0.06431650509028142
3.717644791549659,0.06431650509028142
3.7196456767980712,0.10205489330216144
3.7216465620464834,0.17208587699658873
3.7236474472948955,0.1828500754907556
3.7256483325433076,0.1828500754907556
3.7276492177917193,0.1828500754907556
3.7296501030401314,0.1828500754907556
3.7316509882885436,0.1828500754907556
3.7336518735369557,0.1828500754907556
3.735652758785368,0.1767718974737318
3.73765364403378,0.0967364875372434
3.739654529282192,0.04738313789021387
3.7416554145306042,0.04738313789021387
3.7436562997790164,0.03701702365986215
3.7456571850274285,0.022010384296770713
3.74765807027584,0.007003744933682388
3.7496589555242523,-0.008002894429408602
3.7516598407726645,-0.02300953379249826
3.7536607260210766,-0.04108255937075489
3.7556616112694887,-0.0610914118548771
3.757662496517901,-0.06268374891022654
3.759663381766313,-0.06496306566660603
3.761664267014725,-0.07496749190866714
3.7636651522631372,-0.09032672019116061
3.7656660375115494,-0.11033557267528016
3.767666922759961,-0.11348385051042964
3.769667808008373,-0.11273317732719113
3.7716686932567853,-0.1077309642061608
3.7736695785051975,-0.10272875108513002
3.7756704637536096,-0.09772653796409969
3.7776713490020217,-0.08124584944119251
3.779672234250434,-0.06159868494536136
3.781673119498846,-0.04659204558226948
3.783674004747258,-0.03158540621917805
3.7856748899956703,-0.016578766856086613
3.787675775244082,-0.001572127493000064
3.789676660492494,0.013434511870090038
3.791677545740906,0.023466235318813755
3.7936784309893183,0.033470661560874415
3.7956793162377305,0.04347508780293596
3.7976802014861426,0.04738313789021387
3.7996810867345547,0.04738313789021387
3.801681971982967,0.05655499932904995
3.803682857231379,0.06431650509028142
3.805683742479791,0.06431650509028142
3.807684627728203,0.008473244559036086
3.809685512976615,-0.0965732309826044
3.811686398225027,-0.03793883107002616
3.813687283473439,0.03891645429018009
3.8156881687218513,0.03891645429018009
3.8176890539702635,0.03891645429018009
3.8196899392186756,0.03891645429018009
3.8216908244670877,0.03891645429018009
3.8236917097155,0.03891645429018009
3.825692594963912,0.03891645429018009
3.8276934802123237,0.03891645429018009
3.829694365460736,0.03891645429018009
3.831695250709148,0.03891645429018009
3.83369613595756,0.03891645429018009
3.8356970212059722,0.03891645429018009
3.8376979064543844,0.03891645429018009
3.8396987917027965,0.03891645429018009
3.8416996769512086,0.03891645429018009
3.8437005621996208,0.03891645429018009
3.845701447448033,0.03434872170853698
3.8477023326964446,0.030449770690145872
3.8497032179448567,0.030449770690145872
3.851704103193269,0.025167761200816763
3.853704988441681,0.015163334958755659
3.855705873690093,-0.03244981776353173
3.8577067589385052,-0.06747440867959176
3.8597076441869174,0.01756321437791586
3.8617085294353295,0.06431650509028142
3.8637094146837416,0.06431650509028142
3.8657102999321538,0.11358341358292323
3.8677111851805654,0.17015459962513813
3.8697120704289776,0.10512582905174117
3.8717129556773897,0.06431650509028142
3.873713840925802,0.06431650509028142
3.875714726174214,0.06431650509028142
3.877715611422626,0.06431650509028142
3.8797164966710382,0.06431650509028142
3.8817173819194504,0.06431650509028142
3.8837182671678625,0.06431650509028142
3.8857191524162746,0.06431650509028142
3.8877200376646863,0.06431650509028142
3.8897209229130985,0.06431650509028142
3.8917218081615106,0.06431650509028142
3.8937226934099227,0.06431650509028142
3.895723578658335,0.06431650509028142
3.897724463906747,0.06431650509028142
3.899725349155159,0.06431650509028142
3.9017262344035712,0.06431650509028142
3.9037271196519834,0.06431650509028142
3.9057280049003955,0.06431650509028142
3.907728890148807,0.06431650509028142
3.9097297753972193,0.06431650509028142
3.9117306606456315,0.06431650509028142
3.9137315458940436,0.06431650509028142
3.9157324311424557,0.06431650509028142
3.917733316390868,0.06431650509028142
3.91973420163928,0.06431650509028142
3.921735086887692,0.06431650509028142
3.9237359721361043,0.06431650509028142
3.9257368573845164,0.06431650509028142
3.927737742632928,0.06431650509028142
3.92973862788134,0.06431650509028142
3.9317395131297523,0.06431650509028142
3.9337403983781645,0.06431650509028142
3.9357412836265766,0.06431650509028142
3.9377421688749887,0.06431650509028142
3.939743054123401,0.06431650509028142
3.941743939371813,0.06431650509028142
3.943744824620225,0.06431650509028142
3.9457457098686373,0.06431650509028142
3.947746595117049,0.06431650509028142
3.949747480365461,0.06431650509028142
3.951748365613873,0.06431650509028142
3.9537492508622853,0.06431650509028142
3.9557501361106975,0.06431650509028142
3.9577510213591096,0.06431650509028142
3.9597519066075217,0.06431650509028142
3.961752791855934,0.06431650509028142
3.963753677104346,0.06431650509028142
3.965754562352758,0.06431650509028142
3.96775544760117,0.06431650509028142
3.969756332849582,0.06431650509028142
3.971757218097994,0.06431650509028142
3.9737581033464062,0.06431650509028142
3.9757589885948184,0.06431650509028142
3.9777598738432305,0.06431650509028142
3.9797607590916426,0.06431650509028142
3.9817616443400548,0.06431650509028142
3.983762529588467,0.06431650509028142
3.985763414836879,0.06431650509028142
3.9877643000852907,0.06431650509028142
3.989765185333703,0.06431650509028142
3.991766070582115,0.06431650509028142
3.993766955830527,0.06431650509028142
3.9957678410789392,0.06431650509028142
3.9977687263273514,0.1128736862096753
3.9997696115757635,0.17086432699837184
4.001770496824175,0.10583555642498954
4.003771382072587,0.06431650509028142
4.0057722673209994,0.06431650509028142
4.007773152569412,0.06431650509028142
4.009774037817824,0.06431650509028142
4.011774923066236,0.06431650509028142
4.013775808314648,0.06431650509028142
4.01577669356306,0.06431650509028142
4.017777578811472,0.06431650509028142
4.019778464059884,0.06431650509028142
4.0217793493082965,0.06431650509028142
4.023780234556709,0.06431650509028142
4.025781119805121,0.06431650509028142
4.027782005053533,0.06431650509028142
4.029782890301945,0.06431650509028142
4.031783775550357,0.06431650509028142
4.033784660798769,0.06431650509028142
4.035785546047181,0.06431650509028142
4.037786431295593,0.06431650509028142
4.039787316544005,0.06431650509028142
4.041788201792417,0.06431650509028142
4.043789087040829,0.06431650509028142
4.045789972289241,0.06431650509028142
4.047790857537653,0.06431650509028142
4.0497917427860655,0.06431650509028142
4.051792628034478,0.06431650509028142
4.05379351328289,0.06431650509028142
4.055794398531302,0.06431650509028142
4.057795283779714,0.06431650509028142
4.059796169028126,0.06431650509028142
4.061797054276538,0.06431650509028142
4.06379793952495,0.06431650509028142
4.0657988247733625,0.06431650509028142
4.067799710021775,0.06431650509028142
4.069800595270187,0.06431650509028142
4.071801480518599,0.06431650509028142
4.073802365767011,0.06431650509028142
4.075803251015423,0.06431650509028142
4.077804136263834,0.06431650509028142
4.0798050215122466,0.06431650509028142
4.081805906760659,0.06431650509028142
4.083806792009071,0.06431650509028142
4.085807677257483,0.06431650509028142
4.087808562505895,0.06431650509028142
4.089809447754307,0.06431650509028142
4.091810333002719,0.06431650509028142
4.0938112182511315,0.06431650509028142
4.095812103499544,0.06431650509028142
4.097812988747956,0.06431650509028142
4.099813873996368,0.06431650509028142
4.10181475924478,0.06431650509028142
4.103815644493192,0.06431650509028142
4.105816529741604,0.06431650509028142
4.107817414990016,0.06431650509028142
4.1098183002384285,0.06431650509028142
4.111819185486841,0.06431650509028142
4.113820070735253,0.06431650509028142
4.115820955983665,0.06431650509028142
4.117821841232077,0.06431650509028142
4.119822726480488,0.06431650509028142
4.1218236117289,0.06431650509028142
4.123824496977313,0.06431650509028142
4.125825382225725,0.06431650509028142
4.127826267474137,0.06431650509028142
4.129827152722549,0.11216395883642072
4.131828037970961,0.17157405437163398
4.133828923219373,0.10654528379822858
4.135829808467785,0.06431650509028142
4.1378306937161975,0.06431650509028142
4.13983157896461,0.06431650509028142
4.141832464213022,0.06431650509028142
4.143833349461434,0.06431650509028142
4.145834234709846,0.06431650509028142
4.147835119958258,0.06431650509028142
4.14983600520667,0.06431650509028142
4.151836890455082,0.06431650509028142
4.1538377757034946,0.06431650509028142
4.155838660951907,0.06431650509028142
4.157839546200319,0.06431650509028142
4.15984043144873,0.06431650509028142
4.161841316697142,0.06431650509028142
4.163842201945554,0.06431650509028142
4.1658430871939665,0.06431650509028142
4.167843972442379,0.06431650509028142
4.169844857690791,0.06431650509028142
4.171845742939203,0.06431650509028142
4.173846628187615,0.06431650509028142
4.175847513436027,0.06431650509028142
4.177848398684439,0.06431650509028142
4.179849283932851,0.06431650509028142
4.1818501691812635,0.06431650509028142
4.183851054429676,0.06431650509028142
4.185851939678088,0.06431650509028142
4.1878528249265,0.06431650509028142
4.189853710174912,0.06431650509028142
4.191854595423324,0.06431650509028142
4.193855480671736,0.06431650509028142
4.195856365920148,0.06431650509028142
4.197857251168561,0.06431650509028142
4.199858136416972,0.06431650509028142
4.201859021665384,0.06431650509028142
4.203859906913796,0.06431650509028142
4.205860792162208,0.06431650509028142
4.20786167741062,0.06431650509028142
4.2098625626590325,0.06431650509028142
4.211863447907445,0.06431650509028142
4.213864333155857,0.06431650509028142
4.215865218404269,0.06431650509028142
4.217866103652681,0.06431650509028142
4.219866988901093,0.06431650509028142
4.221867874149505,0.06431650509028142
4.223868759397917,0.06431650509028142
4.2258696446463295,0.06431650509028142
4.227870529894742,0.06431650509028142
4.229871415143154,0.06431650509028142
4.231872300391566,0.06431650509028142
4.233873185639978,0.06431650509028142
4.23587407088839,0.06431650509028142
4.237874956136802,0.06431650509028142
4.239875841385214,0.06431650509028142
4.241876726633626,0.06431650509028142
4.243877611882038,0.06431650509028142
4.24587849713045,0.06431650509028142
4.247879382378862,0.06431650509028142
4.249880267627274,0.06431650509028142
4.251881152875686,0.06431650509028142
4.2538820381240985,0.06431650509028142
4.255882923372511,0.06431650509028142
4.257883808620923,0.06431650509028142
4.259884693869335,0.06431650509028142
4.261885579117747,0.06431650509028142
4.263886464366159,0.06641611523613555
4.265887349614571,0.13144488580954095
4.267888234862983,0.15229312739850354
4.2698891201113955,0.08726435682511502
4.271890005359808,0.06431650509028142
4.27389089060822,0.06431650509028142
4.275891775856632,0.06431650509028142
4.277892661105044,0.06431650509028142
4.279893546353455,0.06431650509028142
4.2818944316018674,0.06431650509028142
4.28389531685028,0.06431650509028142
4.285896202098692,0.06431650509028142
4.287897087347104,0.06431650509028142
4.289897972595516,0.06431650509028142
4.291898857843928,0.06431650509028142
4.29389974309234,0.06431650509028142
4.295900628340752,0.06431650509028142
4.2979015135891645,0.06431650509028142
4.299902398837577,0.06431650509028142
4.301903284085989,0.06431650509028142
4.303904169334401,0.06431650509028142
4.305905054582813,0.06431650509028142
4.307905939831225,0.06431650509028142
4.309906825079637,0.06431650509028142
4.311907710328049,0.06431650509028142
4.313908595576462,0.06431650509028142
4.315909480824874,0.06431650509028142
4.317910366073286,0.06431650509028142
4.319911251321697,0.06431650509028142
4.321912136570109,0.06431650509028142
4.323913021818521,0.06431650509028142
4.3259139070669335,0.06431650509028142
4.327914792315346,0.06431650509028142
4.329915677563758,0.06431650509028142
4.33191656281217,0.06431650509028142
4.333917448060582,0.06431650509028142
4.335918333308994,0.06431650509028142
4.337919218557406,0.06431650509028142
4.339920103805818,0.06431650509028142
4.3419209890542305,0.06431650509028142
4.343921874302643,0.06431650509028142
4.345922759551055,0.06431650509028142
4.347923644799467,0.06431650509028142
4.349924530047879,0.06431650509028142
4.351925415296291,0.06431650509028142
4.353926300544703,0.06431650509028142
4.355927185793115,0.06431650509028142
4.357928071041528,0.06431650509028142
4.359928956289939,0.06431650509028142
4.361929841538351,0.06431650509028142
4.363930726786763,0.06431650509028142
4.365931612035175,0.06431650509028142
4.367932497283587,0.06431650509028142
4.3699333825319995,0.06431650509028142
4.371934267780412,0.06431650509028142
4.373935153028824,0.06431650509028142
4.375936038277236,0.06431650509028142
4.377936923525648,0.06431650509028142
4.37993780877406,0.06431650509028142
4.381938694022472,0.06431650509028142
4.383939579270884,0.06431650509028142
4.3859404645192965,0.06431650509028142
4.387941349767709,0.06431650509028142
4.389942235016121,0.06431650509028142
4.391943120264533,0.06431650509028142
4.393944005512945,0.06431650509028142
4.395944890761357,0.06570638786290184
4.397945776009769,0.1307351584363068
4.399946661258181,0.15300285477176567
4.401947546506593,0.0879740841983776
4.403948431755005,0.06431650509028142
4.405949317003417,0.06431650509028142
4.407950202251829,0.06431650509028142
4.409951087500241,0.06431650509028142
4.411951972748653,0.06431650509028142
4.4139528579970655,0.06431650509028142
4.415953743245478,0.06431650509028142
4.41795462849389,0.06431650509028142
4.419955513742302,0.06431650509028142
4.421956398990714,0.06431650509028142
4.423957284239126,0.06431650509028142
4.425958169487538,0.06431650509028142
4.42795905473595,0.06431650509028142
4.4299599399843625,0.06431650509028142
4.431960825232775,0.06431650509028142
4.433961710481187,0.06431650509028142
4.435962595729599,0.06431650509028142
4.437963480978011,0.06431650509028142
4.439964366226422,0.06431650509028142
4.4419652514748345,0.06431650509028142
4.443966136723247,0.06431650509028142
4.445967021971659,0.06431650509028142
4.447967907220071,0.06431650509028142
4.449968792468483,0.06431650509028142
4.451969677716895,0.06431650509028142
4.453970562965307,0.06431650509028142
4.455971448213719,0.06431650509028142
4.4579723334621315,0.06431650509028142
4.459973218710544,0.06431650509028142
4.461974103958956,0.06431650509028142
4.463974989207368,0.06431650509028142
4.46597587445578,0.06431650509028142
4.467976759704192,0.06431650509028142
4.469977644952604,0.06431650509028142
4.471978530201016,0.06431650509028142
4.473979415449429,0.06431650509028142
4.475980300697841,0.06431650509028142
4.477981185946253,0.06431650509028142
4.479982071194664,0.06431650509028142
4.481982956443076,0.06431650509028142
4.483983841691488,0.06431650509028142
4.4859847269399005,0.06431650509028142
4.487985612188313,0.06431650509028142
4.489986497436725,0.06431650509028142
4.491987382685137,0.06431650509028142
4.493988267933549,0.06431650509028142
4.495989153181961,0.06431650509028142
4.497990038430373,0.06431650509028142
4.499990923678785,0.06431650509028142
4.5019918089271975,0.06431650509028142
4.50399269417561,0.06431650509028142
4.505993579424022,0.06431650509028142
4.507994464672434,0.06431650509028142
4.509995349920846,0.06431650509028142
4.511996235169258,0.06431650509028142
4.51399712041767,0.06431650509028142
4.5159980056660824,0.06431650509028142
4.517998890914495,0.06431650509028142
4.519999776162906,0.06431650509028142
4.522000661411318,0.06431650509028142
4.52400154665973,0.06431650509028142
4.526002431908142,0.06431650509028142
4.528003317156554,0.06431650509028142
4.5300042024049665,0.06431650509028142
4.532005087653379,0.016614636446306896
4.534005972901791,-0.1334517571845888
4.536006858150203,-0.22096205221231768
4.538007743398615,-0.27098418342261654
4.540008628647027,-0.27435083891107315
4.542009513895439,-0.27435083891107315
4.544010399143851,-0.27435083891107315
4.5460112843922635,-0.27435083891107315
4.548012169640676,-0.27435083891107315
4.550013054889088,-0.27435083891107315
4.5520139401375,-0.27435083891107315
4.554014825385912,-0.27435083891107315
4.556015710634324,-0.27435083891107315
4.558016595882736,-0.27435083891107315
4.560017481131148,-0.27435083891107315
4.56201836637956,-0.27435083891107315
4.564019251627972,-0.27435083891107315
4.566020136876384,-0.27435083891107315
4.568021022124796,-0.27435083891107315
4.570021907373208,-0.27435083891107315
4.57202279262162,-0.27435083891107315
4.5740236778700325,-0.27435083891107315
4.576024563118445,-0.27435083891107315
4.578025448366857,-0.27435083891107315
4.580026333615269,-0.27435083891107315
4.582027218863681,-0.27435083891107315
4.584028104112093,-0.27435083891107315
4.586028989360505,-0.27435083891107315
4.588029874608917,-0.27435083891107315
4.59003075985733,-0.27435083891107315
4.592031645105742,-0.27435083891107315
4.594032530354154,-0.27435083891107315
4.596033415602566,-0.27435083891107315
4.598034300850978,-0.27435083891107315
4.600035186099389,-0.27435083891107315
4.6020360713478015,-0.27435083891107315
4.604036956596214,-0.27435083891107315
4.606037841844626,-0.27435083891107315
4.608038727093038,-0.27435083891107315
4.61003961234145,-0.27435083891107315
4.612040497589862,-0.27435083891107315
4.614041382838274,-0.27435083891107315
4.616042268086686,-0.27435083891107315
4.6180431533350985,-0.27435083891107315
4.620044038583511,-0.27435083891107315
4.622044923831923,-0.27435083891107315
4.624045809080335,-0.27435083891107315
4.626046694328747,-0.27435083891107315
4.628047579577159,-0.27435083891107315
4.630048464825571,-0.27435083891107315
4.632049350073983,-0.27435083891107315
4.634050235322396,-0.27435083891107315
4.636051120570808,-0.27435083891107315
4.63805200581922,-0.27435083891107315
4.640052891067632,-0.27435083891107315
4.642053776316043,-0.27435083891107315
4.644054661564455,-0.27435083891107315
4.6460555468128675,-0.27435083891107315
4.64805643206128,-0.27435083891107315
4.650057317309692,-0.27435083891107315
4.652058202558104,-0.27435083891107315
4.654059087806516,-0.27435083891107315
4.656059973054928,-0.27435083891107315
4.65806085830334,-0.27435083891107315
4.660061743551752,-0.27435083891107315
4.6620626288001645,-0.27435083891107315
4.664063514048577,-0.22060946329283437
4.666064399296989,-0.0455320040567897
4.668065284545401,0.037349139674275555
4.670066169793813,0.06236020527942454
4.672067055042225,0.06431650509028142
4.674067940290637,0.06431650509028142
4.6760688255390495,0.06431650509028142
4.678069710787462,0.06431650509028142
4.680070596035874,0.06431650509028142
4.682071481284285,0.06431650509028142
4.684072366532697,0.06431650509028142
4.686073251781109,0.06431650509028142
4.688074137029521,0.06431650509028142
4.6900750222779335,0.06431650509028142
4.692075907526346,0.06431650509028142
4.694076792774758,0.06431650509028142
4.69607767802317,0.06431650509028142
4.698078563271582,0.06431650509028142
4.700079448519994,0.06431650509028142
4.702080333768406,0.06431650509028142
4.704081219016818,0.06431650509028142
4.7060821042652305,0.06431650509028142
4.708082989513643,0.06431650509028142
4.710083874762055,0.06431650509028142
4.712084760010467,0.06431650509028142
4.714085645258879,0.06431650509028142
4.716086530507291,0.06431650509028142
4.718087415755703,0.06431650509028142
4.7200883010041155,0.06431650509028142
4.722089186252527,0.06431650509028142
4.724090071500939,0.06431650509028142
4.726090956749351,0.06431650509028142
4.728091841997763,0.06431650509028142
4.730092727246175,0.06431650509028142
4.732093612494587,0.06431650509028142
4.7340944977429995,0.06431650509028142
4.736095382991412,0.06431650509028142
4.738096268239824,0.06431650509028142
4.740097153488236,0.06431650509028142
4.742098038736648,0.06431650509028142
4.74409892398506,0.06431650509028142
4.746099809233472,0.06431650509028142
4.748100694481884,0.06431650509028142
4.750101579730297,0.06431650509028142
4.752102464978709,0.06431650509028142
4.754103350227121,0.06431650509028142
4.756104235475533,0.06431650509028142
4.758105120723945,0.06431650509028142
4.760106005972357,0.06431650509028142
4.7621068912207685,0.06431650509028142
4.764107776469181,0.06431650509028142
4.766108661717593,0.06431650509028142
4.768109546966005,0.06431650509028142
4.770110432214417,0.06431650509028142
4.772111317462829,0.06431650509028142
4.774112202711241,0.06431650509028142
4.776113087959653,0.06431650509028142
4.7781139732080655,0.06431650509028142
4.780114858456478,0.06431650509028142
4.78211574370489,0.06431650509028142
4.784116628953302,0.06431650509028142
4.786117514201714,0.06431650509028142
4.788118399450126,0.06431650509028142
4.790119284698538,0.06431650509028142
4.7921201699469504,0.06431650509028142
4.794121055195363,0.06431650509028142
4.796121940443775,0.08356786008953643
4.798122825692187,0.1485966306629245
4.800123710940599,0.13514138254513064
4.80212459618901,0.07011261197177143
4.804125481437422,0.06431650509028142
4.8061263666858345,0.06431650509028142
4.808127251934247,0.06431650509028142
4.810128137182659,0.06431650509028142
4.812129022431071,0.06431650509028142
4.814129907679483,0.06431650509028142
4.816130792927895,0.06431650509028142
4.818131678176307,0.06431650509028142
4.820132563424719,0.06431650509028142
4.8221334486731315,0.06431650509028142
4.824134333921544,0.06431650509028142
4.826135219169956,0.06431650509028142
4.828136104418368,0.06431650509028142
4.83013698966678,0.06431650509028142
4.832137874915192,0.06431650509028142
4.834138760163604,0.06431650509028142
4.8361396454120165,0.06431650509028142
4.838140530660429,0.06431650509028142
4.840141415908841,0.06431650509028142
4.842142301157252,0.06431650509028142
4.844143186405664,0.06431650509028142
4.846144071654076,0.06431650509028142
4.848144956902488,0.06431650509028142
4.8501458421509005,0.06431650509028142
4.852146727399313,0.06431650509028142
4.854147612647725,0.06431650509028142
4.856148497896137,0.06431650509028142
4.858149383144549,0.06431650509028142
4.860150268392961,0.06431650509028142
4.862151153641373,0.06431650509028142
4.864152038889785,0.06431650509028142
4.8661529241381976,0.06431650509028142
4.86815380938661,0.06431650509028142
4.870154694635022,0.06431650509028142
4.872155579883434,0.06431650509028142
4.874156465131846,0.06431650509028142
4.876157350380258,0.06431650509028142
4.87815823562867,0.06431650509028142
4.8801591208770825,0.06431650509028142
4.882160006125494,0.06431650509028142
4.884160891373906,0.06431650509028142
4.886161776622318,0.06431650509028142
4.88816266187073,0.06431650509028142
4.890163547119142,0.06431650509028142
4.892164432367554,0.06431650509028142
4.8941653176159665,0.06431650509028142
4.896166202864379,0.06431650509028142
4.898167088112791,0.06431650509028142
4.900167973361203,0.06431650509028142
4.902168858609615,0.06431650509028142
4.904169743858027,0.06431650509028142
4.906170629106439,0.06431650509028142
4.908171514354851,0.06431650509028142
4.910172399603264,0.06431650509028142
4.912173284851676,0.06431650509028142
4.914174170100088,0.06431650509028142
4.9161750553485,0.06431650509028142
4.918175940596912,0.06431650509028142
4.920176825845324,0.06431650509028142
4.9221777110937355,0.06431650509028142
4.924178596342148,0.06431650509028142
4.92617948159056,0.06431650509028142
4.928180366838972,0.06431650509028142
4.930181252087384,0.06431650509028142
4.932182137335796,0.10284878706261003
4.934183022584208,0.1678775576359981
4.93618390783262,0.11586045557204194
4.9381847930810325,0.06431650509028142
4.940185678329445,0.06431650509028142
4.942186563577857,0.06431650509028142
4.944187448826269,0.06431650509028142
4.946188334074681,0.06431650509028142
4.948189219323093,0.06431650509028142
4.950190104571505,0.06431650509028142
4.9521909898199175,0.06431650509028142
4.95419187506833,0.06431650509028142
4.956192760316742,0.06431650509028142
4.958193645565154,0.06431650509028142
4.960194530813566,0.06431650509028142
4.962195416061977,0.06431650509028142
4.964196301310389,0.06431650509028142
4.9661971865588015,0.06431650509028142
4.968198071807214,0.06431650509028142
4.970198957055626,0.06431650509028142
4.972199842304038,0.06431650509028142
4.97420072755245,0.06431650509028142
4.976201612800862,0.06431650509028142
4.978202498049274,0.06431650509028142
4.980203383297686,0.06431650509028142
4.9822042685460985,0.06431650509028142
4.984205153794511,0.06431650509028142
4.986206039042923,0.06431650509028142
4.988206924291335,0.06431650509028142
4.990207809539747,0.06431650509028142
4.992208694788159,0.06431650509028142
4.994209580036571,0.06431650509028142
4.9962104652849835,0.06431650509028142
4.998211350533396,0.06431650509028142
5.000212235781808,0.06431650509028142
5.002213121030219,0.06431650509028142
5.004214006278631,0.06431650509028142
5.006214891527043,0.06431650509028142
5.008215776775455,0.06431650509028142
5.0102166620238675,0.06431650509028142
5.01221754727228,0.06431650509028142
5.014218432520692,0.06431650509028142
5.016219317769104,0.06431650509028142
5.018220203017516,0.06431650509028142
5.020221088265928,0.06431650509028142
5.02222197351434,0.06431650509028142
5.024222858762752,0.06431650509028142
5.026223744011165,0.06431650509028142
5.028224629259577,0.06431650509028142
5.030225514507989,0.06431650509028142
5.032226399756401,0.06431650509028142
5.034227285004813,0.06431650509028142
5.036228170253225,0.06431650509028142
5.038229055501637,0.06431650509028142
5.0402299407500495,0.06431650509028142
5.042230825998461,0.06431650509028142
5.044231711246873,0.06431650509028142
5.046232596495285,0.06431650509028142
5.048233481743697,0.06431650509028142
5.050234366992109,0.06431650509028142
5.052235252240521,0.06431650509028142
5.0542361374889335,0.06431650509028142
5.056237022737346,0.06431650509028142
5.058237907985758,0.06431650509028142
5.06023879323417,0.06431650509028142
5.062239678482582,0.06431650509028142
5.064240563730994,0.10213905968937631
5.066241448979406,0.16716783026276483
5.0682423342278184,0.11657018294527566
5.070243219476231,0.06431650509028142
5.072244104724643,0.06431650509028142
5.074244989973055,0.06431650509028142
5.076245875221467,0.06431650509028142
5.078246760469879,0.06431650509028142
5.080247645718291,0.06431650509028142
5.0822485309667025,0.06431650509028142
5.084249416215115,0.06431650509028142
5.086250301463527,0.06431650509028142
5.088251186711939,0.06431650509028142
5.090252071960351,0.06431650509028142
5.092252957208763,0.06431650509028142
5.094253842457175,0.06431650509028142
5.096254727705587,0.06431650509028142
5.0982556129539995,0.06431650509028142
5.100256498202412,0.06431650509028142
5.102257383450824,0.06431650509028142
5.104258268699236,0.06431650509028142
5.106259153947648,0.06431650509028142
5.10826003919606,0.06431650509028142
5.110260924444472,0.06431650509028142
5.1122618096928845,0.06431650509028142
5.114262694941297,0.06431650509028142
5.116263580189709,0.06431650509028142
5.118264465438121,0.06431650509028142
5.120265350686533,0.06431650509028142
5.122266235934944,0.06431650509028142
5.124267121183356,0.06431650509028142
5.1262680064317685,0.06431650509028142
5.128268891680181,0.06431650509028142
5.130269776928593,0.06431650509028142
5.132270662177005,0.06431650509028142
5.134271547425417,0.06431650509028142
5.136272432673829,0.06431650509028142
5.138273317922241,0.06431650509028142
5.140274203170653,0.06431650509028142
5.1422750884190656,0.06431650509028142
5.144275973667478,0.06431650509028142
5.14627685891589,0.06431650509028142
5.148277744164302,0.06431650509028142
5.150278629412714,0.06431650509028142
5.152279514661126,0.06431650509028142
5.154280399909538,0.06431650509028142
5.1562812851579505,0.06431650509028142
5.158282170406363,0.06431650509028142
5.160283055654775,0.06431650509028142
5.162283940903187,0.06431650509028142
5.164284826151598,0.06431650509028142
5.16628571140001,0.06431650509028142
5.168286596648422,0.06431650509028142
5.1702874818968345,0.06431650509028142
5.172288367145247,0.06431650509028142
5.174289252393659,0.06431650509028142
5.176290137642071,0.06431650509028142
5.178291022890483,0.06431650509028142
5.180291908138895,0.06431650509028142
5.182292793387307,0.06431650509028142
5.184293678635719,0.06431650509028142
5.186294563884132,0.06431650509028142
5.188295449132544,0.06431650509028142
5.190296334380956,0.06431650509028142
5.192297219629368,0.06431650509028142
5.19429810487778,0.06431650509028142
5.196298990126192,0.1014293323161426
5.198299875374604,0.1664581028895311
5.2003007606230165,0.11727991031850937
5.202301645871429,0.06431650509028142
5.20430253111984,0.06431650509028142
5.206303416368252,0.06431650509028142
5.208304301616664,0.06431650509028142
5.210305186865076,0.06431650509028142
5.212306072113488,0.06431650509028142
5.2143069573619005,0.06431650509028142
5.216307842610313,0.06431650509028142
5.218308727858725,0.06431650509028142
5.220309613107137,0.06431650509028142
5.222310498355549,0.06431650509028142
5.224311383603961,0.06431650509028142
5.226312268852373,0.06431650509028142
5.2283131541007855,0.06431650509028142
5.230314039349198,0.06431650509028142
5.23231492459761,0.06431650509028142
5.234315809846022,0.06431650509028142
5.236316695094434,0.06431650509028142
5.238317580342846,0.06431650509028142
5.240318465591258,0.06431650509028142
5.24231935083967,0.06431650509028142
5.244320236088082,0.06431650509028142
5.246321121336494,0.06431650509028142
5.248322006584906,0.06431650509028142
5.250322891833318,0.06431650509028142
5.25232377708173,0.06431650509028142
5.254324662330142,0.06431650509028142
5.256325547578554,0.06431650509028142
5.2583264328269665,0.06431650509028142
5.260327318075379,0.06431650509028142
5.262328203323791,0.06431650509028142
5.264329088572203,0.06431650509028142
5.266329973820615,0.06431650509028142
5.268330859069027,0.06431650509028142
5.270331744317439,0.06431650509028142
5.2723326295658515,0.06431650509028142
5.274333514814264,0.06431650509028142
5.276334400062676,0.06431650509028142
5.278335285311088,0.06431650509028142
5.2803361705595,0.06431650509028142
5.282337055807912,0.06431650509028142
5.284337941056323,0.06431650509028142
5.2863388263047355,0.06431650509028142
5.288339711553148,0.06431650509028142
5.29034059680156,0.06431650509028142
5.292341482049972,0.06431650509028142
5.294342367298384,0.06431650509028142
5.296343252546796,0.06431650509028142
5.298344137795208,0.06431650509028142
5.30034502304362,0.06431650509028142
5.302345908292033,0.06431650509028142
5.304346793540445,0.06431650509028142
5.306347678788857,0.06431650509028142
5.308348564037269,0.06431650509028142
5.310349449285681,0.06431650509028142
5.312350334534093,0.06431650509028142
5.314351219782505,0.06431650509028142
5.3163521050309175,0.06431650509028142
5.31835299027933,0.06431650509028142
5.320353875527742,0.06431650509028142
5.322354760776154,0.06431650509028142
5.324355646024565,0.06431650509028142
5.326356531272977,0.06431650509028142
5.328357416521389,0.06431650509028142
5.3303583017698015,0.06431650509028142
5.332359187018214,0.12071025928923129
5.334360072266626,0.16302775391881008
5.336360957515038,0.09799898334542201
5.33836184276345,0.06431650509028142
5.340362728011862,0.06431650509028142
5.342363613260274,0.06431650509028142
5.3443644985086864,0.06431650509028142
5.346365383757099,0.06431650509028142
5.348366269005511,0.06431650509028142
5.350367154253923,0.06431650509028142
5.352368039502335,0.06431650509028142
5.354368924750747,0.06431650509028142
5.356369809999159,0.06431650509028142
5.358370695247571,0.06431650509028142
5.3603715804959835,0.06431650509028142
5.362372465744396,0.06431650509028142
5.364373350992807,0.06431650509028142
5.366374236241219,0.06431650509028142
5.368375121489631,0.06431650509028142
5.370376006738043,0.06431650509028142
5.372376891986455,0.06431650509028142
5.3743777772348675,0.06431650509028142
5.37637866248328,0.06431650509028142
5.378379547731692,0.06431650509028142
5.380380432980104,0.06431650509028142
5.382381318228516,0.06431650509028142
5.384382203476928,0.06431650509028142
5.38638308872534,0.11934767372329791
5.3883839739737525,0.1828500754907556
5.390384859222165,0.1828500754907556
5.392385744470577,0.1828500754907556
5.394386629718989,0.1828500754907556
5.396387514967401,0.1828500754907556
5.398388400215813,0.1828500754907556
5.400389285464225,0.1828500754907556
5.402390170712637,0.1570087198495531
5.404391055961049,0.07697330991311091
5.406391941209461,0.04738313789021387
5.408392826457873,0.04738313789021387
5.410393711706285,0.038001997866960124
5.412394596954697,0.02677147209227737
5.414395482203109,0.011764832729187713
5.416396367451521,-0.003241806633903721
5.4183972526999336,-0.018248445996997376
5.420398137948346,-0.03325508536008748
5.422399023196758,-0.048261724723177135
5.42439990844517,-0.06326836408626679
5.426400793693582,-0.07827500344935823
5.428401678941994,-0.09328164281245188
5.430402564190406,-0.10437568255381535
5.4324034494388185,-0.11348385051042964
5.434404334687231,-0.11348385051042964
5.436405219935643,-0.11149797872568046
5.438406105184055,-0.10649576560464968
5.440406990432467,-0.10149355248361935
5.442407875680879,-0.09637305146704422
5.44440876092929,-0.08136641210395723
5.4464096461777025,-0.06795665933066353
5.448410531426115,-0.057952233088603755
5.450411416674527,-0.04481317761471981
5.452412301922939,-0.029806538251630155
5.454413187171351,-0.019472270762388444
5.456414072419763,-0.0058441403357814
5.458414957668175,0.019166925269367585
5.460415842916587,0.03594105876389442
5.462416728165,0.04594548500595419
5.464417613413412,0.04738313789021387
5.466418498661824,0.06048579708858659
5.468419383910236,0.14052120702506432
5.470420269158648,0.14985685170381746
5.47242115440706,0.0798258680093995
5.474422039655472,0.01368928579891815
5.4764229249038845,-0.0436007266854177
5.478423810152297,-0.01858966108026827
5.480424695400709,0.0005183835839588369
5.482425580649121,0.010522809826018609
5.484426465897532,0.017021819779076797
5.486427351145944,0.022024032900108015
5.488428236394356,0.0270262460211379
5.4904291216427685,0.03202845914216823
5.492430006891181,0.03703067226319945
5.494430892139593,0.03891645429018009
5.496431777388005,0.03891645429018009
5.498432662636417,0.03891645429018009
5.500433547884829,0.03891645429018009
5.502434433133241,0.03891645429018009
5.5044353183816535,0.03891645429018009
5.506436203630066,0.03891645429018009
5.508437088878478,0.03891645429018009
5.51043797412689,0.03891645429018009
5.512438859375302,0.03891645429018009
5.514439744623714,0.03891645429018009
5.516440629872126,0.03891645429018009
5.518441515120538,0.004030624174600206
5.5204424003689505,-0.038107163844467884
5.522443285617363,-0.04811159008653032
5.524444170865774,-0.026924408181429715
5.526445056114186,0.04310657551298869
5.528445941362598,0.06431650509028142
5.53044682661101,0.06431650509028142
5.532447711859422,0.06431650509028142
5.5344485971078345,0.06431650509028142
5.536449482356247,0.06431650509028142
5.538450367604659,0.06431650509028142
5.540451252853071,0.06431650509028142
5.542452138101483,0.06431650509028142
5.544453023349895,0.06431650509028142
5.546453908598307,0.06431650509028142
5.5484547938467195,0.06431650509028142
5.550455679095132,0.06431650509028142
5.552456564343544,0.06431650509028142
5.554457449591956,0.06431650509028142
5.556458334840368,0.06431650509028142
5.55845922008878,0.06431650509028142
5.560460105337192,0.06431650509028142
5.562460990585604,0.06431650509028142
5.564461875834016,0.06431650509028142
5.566462761082428,0.06431650509028142
5.56846364633084,0.06431650509028142
5.570464531579252,0.06431650509028142
5.572465416827664,0.06431650509028142
5.574466302076076,0.06431650509028142
5.576467187324488,0.06431650509028142
5.578468072572901,0.06431650509028142
5.580468957821313,0.06431650509028142
5.582469843069725,0.06431650509028142
5.584470728318137,0.06431650509028142
5.586471613566549,0.06431650509028142
5.588472498814961,0.06431650509028142
5.590473384063373,0.06431650509028142
5.5924742693117855,0.06431650509028142
5.594475154560198,0.06431650509028142
5.59647603980861,0.06431650509028142
5.598476925057022,0.07425268831572573
5.600477810305434,0.1392814588891138
5.602478695553846,0.14445655431894133
5.604479580802257,0.07942778374558213
5.6064804660506695,0.06431650509028142
5.608481351299082,0.06431650509028142
5.610482236547494,0.06431650509028142
5.612483121795906,0.06431650509028142
5.614484007044318,0.06431650509028142
5.61648489229273,0.06431650509028142
5.618485777541142,0.06431650509028142
5.620486662789554,0.06431650509028142
5.622487548037967,0.06431650509028142
5.624488433286379,0.06431650509028142
5.626489318534791,0.06431650509028142
5.628490203783203,0.06431650509028142
5.630491089031615,0.06431650509028142
5.632491974280027,0.06431650509028142
5.634492859528439,0.06431650509028142
5.6364937447768515,0.06431650509028142
5.638494630025264,0.06431650509028142
5.640495515273676,0.06431650509028142
5.642496400522088,0.06431650509028142
5.6444972857705,0.06431650509028142
5.646498171018911,0.06431650509028142
5.648499056267323,0.06431650509028142
5.6504999415157355,0.06431650509028142
5.652500826764148,0.06431650509028142
5.65450171201256,0.06431650509028142
5.656502597260972,0.06431650509028142
5.658503482509384,0.06431650509028142
5.660504367757796,0.06431650509028142
5.662505253006208,0.06431650509028142
5.6645061382546205,0.06431650509028142
5.666507023503033,0.06431650509028142
5.668507908751445,0.06431650509028142
5.670508793999857,0.06431650509028142
5.672509679248269,0.06431650509028142
5.674510564496681,0.06431650509028142
5.676511449745093,0.06431650509028142
5.678512334993505,0.06431650509028142
5.6805132202419175,0.06431650509028142
5.68251410549033,0.06431650509028142
5.684514990738742,0.06431650509028142
5.686515875987153,0.06431650509028142
5.688516761235565,0.06431650509028142
5.690517646483977,0.06431650509028142
5.692518531732389,0.06431650509028142
5.6945194169808016,0.06431650509028142
5.696520302229214,0.06431650509028142
5.698521187477626,0.06431650509028142
5.700522072726038,0.06431650509028142
5.70252295797445,0.06431650509028142
5.704523843222862,0.06431650509028142
5.706524728471274,0.06431650509028142
5.7085256137196865,0.06431650509028142
5.710526498968099,0.06431650509028142
5.712527384216511,0.06431650509028142
5.714528269464923,0.06431650509028142
5.716529154713335,0.06431650509028142
5.718530039961747,0.06431650509028142
5.720530925210159,0.06431650509028142
5.722531810458571,0.06431650509028142
5.7245326957069835,0.06431650509028142
5.726533580955395,0.06431650509028142
5.728534466203807,0.06431650509028142
5.730535351452219,0.07354296094246315
5.732536236700631,0.13857173151585167
5.734537121949043,0.1451662816922039
5.736538007197455,0.08013751111881584
5.738538892445868,0.06431650509028142
5.74053977769428,0.06431650509028142
5.742540662942692,0.06431650509028142
5.744541548191104,0.06431650509028142
5.746542433439516,0.06431650509028142
5.748543318687928,0.06431650509028142
5.75054420393634,0.06431650509028142
5.7525450891847525,0.06431650509028142
5.754545974433165,0.06431650509028142
5.756546859681577,0.06431650509028142
5.758547744929989,0.06431650509028142
5.760548630178401,0.06431650509028142
5.762549515426813,0.06431650509028142
5.764550400675225,0.06431650509028142
5.7665512859236365,0.06431650509028142
5.768552171172049,0.06431650509028142
5.770553056420461,0.06431650509028142
5.772553941668873,0.06431650509028142
5.774554826917285,0.06431650509028142
5.776555712165697,0.06431650509028142
5.778556597414109,0.06431650509028142
5.7805574826625215,0.06431650509028142
5.782558367910934,0.06431650509028142
5.784559253159346,0.06431650509028142
5.786560138407758,0.06431650509028142
5.78856102365617,0.06431650509028142
5.790561908904582,0.06431650509028142
5.792562794152994,0.06431650509028142
5.794563679401406,0.06431650509028142
5.7965645646498185,0.06431650509028142
5.798565449898231,0.06431650509028142
5.800566335146643,0.06431650509028142
5.802567220395055,0.06431650509028142
5.804568105643467,0.06431650509028142
5.806568990891878,0.06431650509028142
5.80856987614029,0.06431650509028142
5.8105707613887025,0.06431650509028142
5.812571646637115,0.06431650509028142
5.814572531885527,0.06431650509028142
5.816573417133939,0.06431650509028142
5.818574302382351,0.06431650509028142
5.820575187630763,0.06431650509028142
5.822576072879175,0.06431650509028142
5.8245769581275875,0.06431650509028142
5.826577843376,0.06431650509028142
5.828578728624412,0.06431650509028142
5.830579613872824,0.06431650509028142
5.832580499121236,0.06431650509028142
5.834581384369648,0.06431650509028142
5.83658226961806,0.06431650509028142
5.838583154866472,0.06431650509028142
5.8405840401148845,0.06431650509028142
5.842584925363297,0.06431650509028142
5.844585810611709,0.06431650509028142
5.84658669586012,0.06431650509028142
5.848587581108532,0.06431650509028142
5.850588466356944,0.06431650509028142
5.852589351605356,0.06431650509028142
5.854590236853769,0.06431650509028142
5.856591122102181,0.06431650509028142
5.858592007350593,0.06431650509028142
5.860592892599005,0.06431650509028142
5.862593777847417,0.07283323356922944
5.864594663095829,0.13786200414261796
5.866595548344241,0.14587600906543763
5.8685964335926535,0.08084723849204956
5.870597318841066,0.06431650509028142
5.872598204089478,0.06431650509028142
5.87459908933789,0.06431650509028142
5.876599974586302,0.06431650509028142
5.878600859834714,0.06431650509028142
5.880601745083126,0.06431650509028142
5.882602630331538,0.06431650509028142
5.8846035155799505,0.06431650509028142
5.886604400828362,0.06431650509028142
5.888605286076774,0.06431650509028142
5.890606171325186,0.06431650509028142
5.892607056573598,0.06431650509028142
5.89460794182201,0.06431650509028142
5.896608827070422,0.06431650509028142
5.898609712318835,0.06431650509028142
5.900610597567247,0.06431650509028142
5.902611482815659,0.06431650509028142
5.904612368064071,0.06431650509028142
5.906613253312483,0.06431650509028142
5.908614138560895,0.06431650509028142
5.910615023809307,0.06431650509028142
5.9126159090577195,0.06431650509028142
5.914616794306132,0.06431650509028142
5.916617679554544,0.06431650509028142
5.918618564802956,0.06431650509028142
5.920619450051368,0.06431650509028142
5.92262033529978,0.06431650509028142
5.924621220548192,0.06431650509028142
5.9266221057966035,0.06431650509028142
5.928622991045016,0.06431650509028142
5.930623876293428,0.06431650509028142
5.93262476154184,0.06431650509028142
5.934625646790252,0.06431650509028142
5.936626532038664,0.06431650509028142
5.938627417287076,0.06431650509028142
5.9406283025354885,0.06431650509028142
5.942629187783901,0.06431650509028142
5.944630073032313,0.06431650509028142
5.946630958280725,0.06431650509028142
5.948631843529137,0.06431650509028142
5.950632728777549,0.06431650509028142
5.952633614025961,0.06431650509028142
5.954634499274373,0.06431650509028142
5.9566353845227855,0.06431650509028142
5.958636269771198,0.06431650509028142
5.96063715501961,0.06431650509028142
5.962638040268022,0.06431650509028142
5.964638925516434,0.06431650509028142
5.966639810764845,0.06431650509028142
5.968640696013257,0.06431650509028142
5.9706415812616696,0.06431650509028142
5.972642466510082,0.06431650509028142
5.974643351758494,0.06431650509028142
5.976644237006906,0.06431650509028142
5.978645122255318,0.06431650509028142
5.98064600750373,0.06431650509028142
5.982646892752142,0.06431650509028142
5.9846477780005545,0.06431650509028142
5.986648663248967,0.06431650509028142
5.988649548497379,0.06431650509028142
5.990650433745791,0.06431650509028142
5.992651318994203,0.06431650509028142
5.994652204242615,0.06431650509028142
5.996653089491027,0.06431650509028142
5.998653974739439,0.0921141605423319
6.0006548599878515,0.15714293111572042
6.002655745236264,0.12659508209232273
6.004656630484676,0.06431650509028142
6.006657515733087,0.06431650509028142
6.008658400981499,0.06431650509028142
6.010659286229911,0.06431650509028142
6.012660171478323,0.06431650509028142
6.014661056726736,0.06431650509028142
6.016661941975148,0.06431650509028142
6.01866282722356,0.06431650509028142
6.020663712471972,0.06431650509028142
6.022664597720384,0.06431650509028142
6.024665482968796,0.06431650509028142
6.026666368217208,0.06431650509028142
6.0286672534656205,0.06431650509028142
6.030668138714033,0.06431650509028142
6.032669023962445,0.06431650509028142
6.034669909210857,0.06431650509028142
6.036670794459269,0.06431650509028142
6.038671679707681,0.06431650509028142
6.040672564956093,0.06431650509028142
6.042673450204505,0.06431650509028142
6.0446743354529175,0.06431650509028142
6.046675220701329,0.06431650509028142
6.048676105949741,0.06431650509028142
6.050676991198153,0.06431650509028142
6.052677876446565,0.06431650509028142
6.054678761694977,0.06431650509028142
6.0566796469433895,0.06431650509028142
6.058680532191802,0.06431650509028142
6.060681417440214,0.06431650509028142
6.062682302688626,0.06431650509028142
6.064683187937038,0.06431650509028142
6.06668407318545,0.06431650509028142
6.068684958433862,0.06431650509028142
6.070685843682274,0.06431650509028142
6.0726867289306865,0.06431650509028142
6.074687614179099,0.06431650509028142
6.076688499427511,0.06431650509028142
6.078689384675923,0.06431650509028142
6.080690269924335,0.06431650509028142
6.082691155172747,0.06431650509028142
6.084692040421159,0.06431650509028142
6.0866929256695705,0.06431650509028142
6.088693810917983,0.06431650509028142
6.090694696166395,0.06431650509028142
6.092695581414807,0.06431650509028142
6.094696466663219,0.06431650509028142
6.096697351911631,0.06431650509028142
6.098698237160043,0.06431650509028142
6.1006991224084555,0.06431650509028142
6.102700007656868,0.06431650509028142
6.10470089290528,0.06431650509028142
6.106701778153692,0.06431650509028142
6.108702663402104,0.06431650509028142
6.110703548650516,0.06431650509028142
6.112704433898928,0.06431650509028142
6.11470531914734,0.06431650509028142
6.1167062043957525,0.06431650509028142
6.118707089644165,0.06431650509028142
6.120707974892577,0.06431650509028142
6.122708860140989,0.06431650509028142
6.124709745389401,0.06431650509028142
6.126710630637812,0.06431650509028142
6.128711515886224,0.06431650509028142
6.130712401134637,0.09140443316906932
6.132713286383049,0.15643320374245784
6.134714171631461,0.1273048094655853
6.136715056879873,0.06431650509028142
6.138715942128285,0.06431650509028142
6.140716827376697,0.06431650509028142
6.142717712625109,0.06431650509028142
6.1447185978735215,0.06431650509028142
6.146719483121934,0.06431650509028142
6.148720368370346,0.06431650509028142
6.150721253618758,0.06431650509028142
6.15272213886717,0.06431650509028142
6.154723024115582,0.06431650509028142
6.156723909363994,0.06431650509028142
6.158724794612406,0.06431650509028142
6.1607256798608185,0.06431650509028142
6.162726565109231,0.06431650509028142
6.164727450357643,0.06431650509028142
6.166728335606055,0.06431650509028142
6.168729220854466,0.06431650509028142
6.170730106102878,0.06431650509028142
6.17273099135129,0.06431650509028142
6.174731876599703,0.06431650509028142
6.176732761848115,0.06431650509028142
6.178733647096527,0.06431650509028142
6.180734532344939,0.06431650509028142
6.182735417593351,0.06431650509028142
6.184736302841763,0.06431650509028142
6.186737188090175,0.06431650509028142
6.1887380733385875,0.06431650509028142
6.190738958587,0.06431650509028142
6.192739843835412,0.06431650509028142
6.194740729083824,0.06431650509028142
6.196741614332236,0.06431650509028142
6.198742499580648,0.06431650509028142
6.20074338482906,0.06431650509028142
6.202744270077472,0.06431650509028142
6.2047451553258846,0.06431650509028142
6.206746040574297,0.06431650509028142
6.208746925822708,0.06431650509028142
