Time_Seconds,Voltage_mV
0.0,0.4535997434029396
0.0020008852484120878,0.4535997434029396
0.0040017704968241755,0.4535997434029396
0.006002655745236263,0.4535997434029396
0.008003540993648351,0.4535997434029396
0.010004426242060438,0.4535997434029396
0.012005311490472527,0.4535997434029396
0.014006196738884615,0.4535997434029396
0.016007081987296702,0.4535997434029396
0.01800796723570879,0.4535997434029396
0.020008852484120876,0.4535997434029396
0.022009737732532966,0.4535997434029396
0.024010622980945053,0.4535997434029396
0.02601150822935714,0.4535997434029396
0.02801239347776923,0.4535997434029396
0.030013278726181317,0.4535997434029396
0.032014163974593404,0.4535997434029396
0.034015049223005495,0.4535997434029396
0.03601593447141758,0.4535997434029396
0.03801681971982967,0.4535997434029396
0.04001770496824175,0.4535997434029396
0.04201859021665384,0.4535997434029396
0.04401947546506593,0.4535997434029396
0.046020360713478016,0.4535997434029396
0.048021245961890106,0.4535997434029396
0.0500221312103022,0.4535997434029396
0.05202301645871428,0.4535997434029396
0.05402390170712637,0.4535997434029396
0.05602478695553846,0.4535997434029396
0.058025672203950544,0.4535997434029396
0.060026557452362635,0.4535997434029396
0.06202744270077472,0.4535997434029396
0.06402832794918681,0.4535997434029396
0.0660292131975989,0.4535997434029396
0.06803009844601099,0.4535997434029396
0.07003098369442307,0.4535997434029396
0.07203186894283516,0.4535997434029396
0.07403275419124725,0.4535997434029396
0.07603363943965934,0.4535997434029396
0.07803452468807143,0.4535997434029396
0.0800354099364835,0.4535997434029396
0.0820362951848956,0.4535997434029396
0.08403718043330768,0.4535997434029396
0.08603806568171977,0.4535997434029396
0.08803895093013187,0.4535997434029396
0.09003983617854396,0.4535997434029396
0.09204072142695603,0.4535997434029396
0.09404160667536812,0.4535997434029396
0.09604249192378021,0.4535997434029396
0.0980433771721923,0.4535997434029396
0.1000442624206044,0.4535997434029396
0.10204514766901647,0.4535997434029396
0.10404603291742856,0.4535997434029396
0.10604691816584065,0.4535997434029396
0.10804780341425274,0.4535997434029396
0.11004868866266483,0.4535997434029396
0.11204957391107692,0.4535997434029396
0.114050459159489,0.4535997434029396
0.11605134440790109,0.4535997434029396
0.11805222965631318,0.4535997434029396
0.12005311490472527,0.4535997434029396
0.12205400015313736,0.4535997434029396
0.12405488540154944,0.4535997434029396
0.12605577064996154,0.4535997434029396
0.12805665589837362,0.4535997434029396
0.1300575411467857,0.4535997434029396
0.1320584263951978,0.4535997434029396
0.13405931164360987,0.4535997434029396
0.13606019689202198,0.4535997434029396
0.13806108214043405,0.4535997434029396
0.14006196738884613,0.4535997434029396
0.14206285263725824,0.4535997434029396
0.1440637378856703,0.4535997434029396
0.14606462313408242,0.4535997434029396
0.1480655083824945,0.4535997434029396
0.15006639363090657,0.4535997434029396
0.15206727887931867,0.4535997434029396
0.15406816412773075,0.4535997434029396
0.15606904937614285,0.4535997434029396
0.15806993462455493,0.4535997434029396
0.160070819872967,0.4535997434029396
0.1620717051213791,0.4535997434029396
0.1640725903697912,0.4535997434029396
0.1660734756182033,0.4535997434029396
0.16807436086661537,0.4535997434029396
0.17007524611502747,0.4535997434029396
0.17207613136343955,0.4535997434029396
0.17407701661185163,0.4535997434029396
0.17607790186026373,0.4535997434029396
0.1780787871086758,0.4535997434029396
0.1800796723570879,0.4535997434029396
0.1820805576055,0.4535997434029396
0.18408144285391206,0.4535997434029396
0.18608232810232417,0.4535997434029396
0.18808321335073624,0.4535997434029396
0.19008409859914835,0.4535997434029396
0.19208498384756043,0.4535997434029396
0.1940858690959725,0.4535997434029396
0.1960867543443846,0.4535997434029396
0.19808763959279668,0.4535997434029396
0.2000885248412088,0.4535997434029396
0.20208941008962086,0.4535997434029396
0.20409029533803294,0.4535997434029396
0.20609118058644504,0.4535997434029396
0.20809206583485712,0.4535997434029396
0.21009295108326922,0.4535997434029396
0.2120938363316813,0.4535997434029396
0.21409472158009338,0.4535997434029396
0.21609560682850548,0.4535997434029396
0.21809649207691756,0.4535997434029396
0.22009737732532966,0.4535997434029396
0.22209826257374174,0.4535997434029396
0.22409914782215384,0.4535997434029396
0.22610003307056592,0.4535997434029396
0.228100918318978,0.4535997434029396
0.2301018035673901,0.4535997434029396
0.23210268881580218,0.4535997434029396
0.23410357406421428,0.4535997434029396
0.23610445931262636,0.4535997434029396
0.23810534456103843,0.4535997434029396
0.24010622980945054,0.4535997434029396
0.24210711505786262,0.4535997434029396
0.24410800030627472,0.4535997434029396
0.2461088855546868,0.4535997434029396
0.24810977080309887,0.4535997434029396
0.25011065605151095,0.4535997434029396
0.2521115412999231,0.4535997434029396
0.25411242654833516,0.4535997434029396
0.25611331179674723,0.4535997434029396
0.2581141970451593,0.4535997434029396
0.2601150822935714,0.4535997434029396
0.2621159675419835,0.4603103067076416
0.2641168527903956,0.47031473294970205
0.26611773803880767,0.4803191591917625
0.26811862328721975,0.49032358543382293
0.2701195085356318,0.5003280116758834
0.27212039378404396,0.510332437917944
0.27412127903245603,0.5203368641600042
0.2761221642808681,0.5213332122032105
0.2781230495292802,0.5213332122032105
0.28012393477769226,0.5213332122032105
0.2821248200261044,0.5213332122032105
0.28412570527451647,0.5213332122032105
0.28612659052292855,0.5213332122032105
0.2881274757713406,0.5213332122032105
0.2901283610197527,0.5213332122032105
0.29212924626816483,0.5213332122032105
0.2941301315165769,0.5213332122032105
0.296131016764989,0.5213332122032105
0.29813190201340106,0.5213332122032105
0.30013278726181314,0.5213332122032105
0.30213367251022527,0.5213332122032105
0.30413455775863735,0.5213332122032105
0.3061354430070494,0.5213332122032105
0.3081363282554615,0.5213332122032105
0.3101372135038736,0.5213332122032105
0.3121380987522857,0.5213332122032105
0.3141389840006978,0.5213332122032105
0.31613986924910986,0.5213332122032105
0.31814075449752194,0.5213332122032105
0.320141639745934,0.5213332122032105
0.32214252499434615,0.5213332122032105
0.3241434102427582,0.5213332122032105
0.3261442954911703,0.5213332122032105
0.3281451807395824,0.5213332122032105
0.3301460659879945,0.5213332122032105
0.3321469512364066,0.5213332122032105
0.33414783648481866,0.5213332122032105
0.33614872173323074,0.5213332122032105
0.3381496069816428,0.5213332122032105
0.34015049223005495,0.5213332122032105
0.342151377478467,0.5213332122032105
0.3441522627268791,0.5213332122032105
0.3461531479752912,0.5213332122032105
0.34815403322370325,0.5213332122032105
0.3501549184721154,0.5213332122032105
0.35215580372052746,0.5213332122032105
0.35415668896893954,0.5213332122032105
0.3561575742173516,0.5213332122032105
0.3581584594657637,0.5213332122032105
0.3601593447141758,0.5213332122032105
0.3621602299625879,0.5213332122032105
0.364161115211,0.5213332122032105
0.36616200045941205,0.5213332122032105
0.36816288570782413,0.5213332122032105
0.37016377095623626,0.5213332122032105
0.37216465620464834,0.5213332122032105
0.3741655414530604,0.5213332122032105
0.3761664267014725,0.5213332122032105
0.37816731194988457,0.5213332122032105
0.3801681971982967,0.5213332122032105
0.3821690824467088,0.5213332122032105
0.38416996769512085,0.5213332122032105
0.3861708529435329,0.5213332122032105
0.388171738191945,0.5213332122032105
0.39017262344035714,0.5213332122032105
0.3921735086887692,0.5213332122032105
0.3941743939371813,0.5213332122032105
0.39617527918559337,0.5213332122032105
0.39817616443400544,0.5213332122032105
0.4001770496824176,0.5213332122032105
0.40217793493082965,0.5213332122032105
0.4041788201792417,0.5213332122032105
0.4061797054276538,0.5213332122032105
0.4081805906760659,0.22322041823447158
0.410181475924478,-0.046919563206155535
0.4121823611728901,-0.051921776327185754
0.41418324642130216,-0.05440127259909233
0.41618413166971424,-0.05440127259909233
0.4181850169181263,-0.05440127259909233
0.42018590216653845,-0.05618923963553191
0.4221867874149505,-0.07119587899862256
0.4241876726633626,-0.07980132339919399
0.4261885579117747,-0.07980132339919399
0.42818944316018676,-0.07980132339919399
0.4301903284085989,-0.07980132339919399
0.43219121365701096,-0.07980132339919399
0.43419209890542304,-0.07980132339919399
0.4361929841538351,-0.07980132339919399
0.4381938694022472,-0.07980132339919399
0.4401947546506593,-0.07980132339919399
0.4421956398990714,-0.06534062816936681
0.4441965251474835,-0.1181220520198768
0.44619741039589556,-0.35322606870829676
0.4481982956443077,-0.34155553795953364
0.45019918089271976,-0.15004223561151975
0.45220006614113184,0.04147106673649392
0.4542009513895439,0.23298436908450715
0.456201836637956,0.42449767143251804
0.4582027218863681,0.6160109737805358
0.4602036071347802,0.8075242761285494
0.4622044923831923,0.9990375784765634
0.46420537763160435,1.1905508808245768
0.46620626288001643,1.382064183172591
0.46820714812842856,1.5735774855206088
0.47020803337684064,1.7650907878686195
0.4722089186252527,1.8167358030083922
0.4742098038736648,1.8167358030083922
0.47621068912207687,1.8167358030083922
0.478211574370489,1.6268154876491967
0.4802124596189011,1.0765720443358733
0.48221334486731315,0.5263286010225557
0.48421423011572523,-0.023914842290758465
0.4862151153641373,-0.045934588999058446
0.48821600061254944,-0.04459702587256176
0.4902168858609615,-0.03959481275153154
0.4922177711093736,-0.03459259963050132
0.49421865635778567,-0.02959038650947121
0.49621954160619774,-0.029001221798990784
0.4982204268546099,-0.02805264386744466
0.5002213121030219,-0.023050430746414663
0.502222197351434,-0.020534538198956898
0.5042230825998462,-0.020534538198956898
0.5062239678482582,-0.020534538198956898
0.5082248530966703,-0.020534538198956898
0.5102257383450823,-0.020534538198956898
0.5122266235934945,-0.020534538198956898
0.5142275088419066,-0.020534538198956898
0.5162283940903186,-0.024169616219605672
0.5182292793387308,-0.02934243688228122
0.5202301645871428,-0.039346863124341325
0.5222310498355549,-0.045934588999058446
0.524231935083967,-0.045934588999058446
0.5262328203323791,-0.047557635411907606
0.5282337055807912,-0.05005874197242277
0.5302345908292032,-0.052559848532937714
0.5322354760776153,-0.05506095509345288
0.5342363613260275,-0.057562061653968155
0.5362372465744395,-0.0600631682144831
0.5382381318228516,-0.06256427477499826
0.5402390170712636,-0.07605250701744881
0.5422399023196758,-0.08826800699922777
0.5442407875680879,-0.08826800699922777
0.5462416728164999,-0.0890907144778269
0.5482425580649121,-0.09075811885150364
0.5502434433133241,-0.09242552322518038
0.5522443285617362,-0.09409292759885723
0.5542452138101484,-0.09576033197253386
0.5562460990585604,-0.09673469059926165
0.5582469843069725,-0.09673469059926165
0.5602478695553845,-0.09673469059926165
0.5622487548037967,-0.09673469059926165
0.5642496400522088,-0.09673469059926165
0.5662505253006208,-0.09673469059926165
0.5682514105490329,-0.09673469059926165
0.570252295797445,-0.09673469059926165
0.5722531810458571,-0.09673469059926165
0.5742540662942692,-0.09673469059926165
0.5762549515426812,-0.09673469059926165
0.5782558367910934,-0.09673469059926165
0.5802567220395054,-0.09673469059926165
0.5822576072879175,-0.09673469059926165
0.5842584925363297,-0.0901697123967633
0.5862593777847417,-0.08266639271521825
0.5882602630331538,-0.07516307303367276
0.5902611482815658,-0.0713346397991601
0.592262033529978,-0.0713346397991601
0.5942629187783901,-0.0713346397991601
0.5962638040268021,-0.07290422918229422
0.5982646892752143,-0.08791086854538521
0.6002655745236263,-0.09673469059926165
0.6022664597720384,-0.09673469059926165
0.6042673450204505,-0.09673469059926165
0.6062682302688626,-0.09673469059926165
0.6082691155172747,-0.09673469059926165
0.6102700007656867,-0.09673469059926165
0.6122708860140988,-0.09673469059926165
0.614271771262511,-0.09673469059926165
0.616272656510923,-0.09673469059926165
0.6182735417593351,-0.09673469059926165
0.6202744270077472,-0.09673469059926165
0.6222753122561593,-0.09673469059926165
0.6242761975045714,-0.09673469059926165
0.6262770827529834,-0.09673469059926165
0.6282779680013956,-0.061867058621474125
0.6302788532498076,-0.01916740309857612
0.6322797384982197,0.03585694123275773
0.6342806237466319,0.10790336868581607
0.6362815089950439,0.19794320486435757
0.638282394243456,0.19866999299176336
0.640283279491868,0.17616003394712798
0.6422841647402802,0.1536500749024915
0.6442850499886923,0.1689308237158299
0.6462859352371043,0.23896180741025097
0.6482868204855164,0.2588660206021608
0.6502877057339286,0.2608382437835838
0.6522885909823406,0.34587586684109495
0.6542894762307527,0.3961846187213546
0.6562903614791648,0.3761757662372348
0.6582912467275769,0.29871994233042065
0.660292131975989,0.18867125366775295
0.662293017224401,0.05024711867870102
0.6642939024728132,-0.05693081374988207
0.6662947877212252,-0.06693523999194229
0.6682956729696373,-0.07413715301658153
0.6702965582180495,-0.07913936613761186
0.6722974434664615,-0.07980132339919399
0.6742983287148736,-0.0806771087796384
0.6762992139632856,-0.08567932190066851
0.6783000992116978,-0.09068153502169884
0.6803009844601099,-0.09568374814272917
0.6823018697085219,-0.09673469059926165
0.684302754956934,-0.09770829097024925
0.6863036402053461,-0.10771271721230946
0.6883045254537582,-0.11366805779932942
0.6903054107021703,-0.11366805779932942
0.6923062959505824,-0.11366805779932942
0.6943071811989945,-0.11366805779932942
0.6963080664474065,-0.11366805779932942
0.6983089516958186,-0.1144858366156144
0.7003098369442308,-0.11698694317612957
0.7023107221926428,-0.11948804973664462
0.7043116074410549,-0.12198915629715978
0.7063124926894669,-0.14097891306585497
0.7083133779378791,-0.16098776554997585
0.7103142631862912,-0.18099661803409728
0.7123151484347032,-0.18986821019963418
0.7143160336831154,-0.18986821019963418
0.7163169189315274,-0.18986821019963418
0.7183178041799395,-0.18872476054274234
0.7203186894283516,-0.18205514304803527
0.7223195746767637,-0.17538552555332854
0.7243204599251758,-0.16871590805862124
0.7263213451735878,-0.1620462905639145
0.728322230422,-0.15600147579949875
0.7303231156704121,-0.15600147579949875
0.7323240009188241,-0.15600147579949875
0.7343248861672362,-0.15600147579949875
0.7363257714156483,-0.15245738846772738
0.7383266566640604,-0.14745517534669705
0.7403275419124725,-0.14245296222566672
0.7423284271608845,-0.13745074910463662
0.7443293124092967,-0.13244853598360629
0.7463301976577087,-0.1306014249993972
0.7483310829061208,-0.1306014249993972
0.750331968154533,-0.1259085802205494
0.752332853402945,-0.12213474139936331
0.7543337386513571,-0.12213474139936331
0.7563346238997691,-0.11936862445749286
0.7583355091481813,-0.11436641133646264
0.7603363943965934,-0.11366805779932942
0.7623372796450054,-0.11366805779932942
0.7643381648934175,-0.11366805779932942
0.7663390501418296,-0.11129092605240953
0.7683399353902417,-0.1062887129313792
0.7703408206386538,-0.10128649981034887
0.7723417058870659,-0.09673469059926165
0.774342591135478,-0.09673469059926165
0.77634347638389,-0.09474654404729221
0.7783443616323021,-0.08974433092626188
0.7803452468807143,-0.08121622861123523
0.7823461321291263,-0.07127322108416767
0.7843470173775384,-0.06627100796313745
0.7863479026259504,-0.061268794842107455
0.7883487878743626,-0.056266581721077125
0.7903496731227747,-0.051264368600046684
0.7923505583711867,-0.04626215547901669
0.7943514436195989,-0.041259942357986246
0.7963523288680109,-0.03686281731799035
0.798353214116423,-0.03436171075747518
0.8003540993648351,-0.03186060419696013
0.8023549846132472,-0.029359497636445075
0.8043558698616593,-0.029001221798990784
0.8063567551100713,-0.029001221798990784
0.8083576403584835,-0.029001221798990784
0.8103585256068956,-0.021924420971557224
0.8123594108553076,-0.0069177816084669
0.8143602961037197,-0.003601170998889125
0.8163611813521318,-0.003601170998889125
0.8183620666005439,-0.003601170998889125
0.820362951848956,-0.003601170998889125
0.822363837097368,-0.003601170998889125
0.8243647223457802,0.0034142111135522235
0.8263656075941922,0.013332196201178537
0.8283664928426043,0.013332196201178537
0.8303673780910165,0.010170269762691087
0.8323682633394285,0.00016584352063098162
0.8343691485878406,-0.003601170998889125
0.8363700338362526,-0.003601170998889125
0.8383709190846648,-0.008257619502185731
0.8403718043330769,-0.014451810647509111
0.8423726895814889,-0.024456236889569327
0.844373574829901,-0.031730942465310386
0.8463744600783131,-0.03673315558634038
0.8483753453267252,-0.04173536870737071
0.8503762305751373,-0.045934588999058446
0.8523771158235494,-0.045934588999058446
0.8543780010719615,-0.048275324470427705
0.8563788863203735,-0.0532775375914577
0.8583797715687856,-0.05827975071248814
0.8603806568171978,-0.06286795619912622
0.8623815420656098,-0.06286795619912622
0.8643824273140219,-0.06286795619912622
0.866383312562434,-0.06286795619912622
0.8683841978108461,-0.06635744911757135
0.8703850830592582,-0.0713346397991601
0.8723859683076702,-0.0713346397991601
0.8743868535560824,-0.07289740488062824
0.8763877388044944,-0.07789961800165834
0.8783886240529065,-0.07980132339919399
0.8803895093013187,-0.07980132339919399
0.8823903945497307,-0.07980132339919399
0.8843912797981428,-0.07980132339919399
0.8863921650465548,-0.07980132339919399
0.888393050294967,-0.07980132339919399
0.8903939355433791,-0.07980132339919399
0.8923948207917911,-0.07980132339919399
0.8943957060402032,-0.08027220021413417
0.8963965912886154,-0.08327352808675237
0.8983974765370274,-0.08627485595937046
0.9003983617854395,-0.08927618383198865
0.9023992470338515,-0.09227751170460663
0.9044001322822637,-0.09527883957722483
0.9064010175306758,-0.09828016744984314
0.9084019027790878,-0.10128149532246122
0.9104027880275,-0.10428282319507942
0.912403673275912,-0.10520137419929554
0.9144045585243241,-0.10518772559596357
0.9164054437727363,-0.0951832993539028
0.9184063290211483,-0.08672344005553523
0.9204072142695604,-0.0817212269345049
0.9224080995179724,-0.07980132339919399
0.9244089847663846,-0.07980132339919399
0.9264098700147967,-0.07980132339919399
0.9284107552632087,-0.07980132339919399
0.9304116405116208,-0.07980132339919399
0.9324125257600329,-0.07980132339919399
0.934413411008445,-0.07980132339919399
0.9364142962568571,-0.07980132339919399
0.9384151815052691,-0.07980132339919399
0.9404160667536813,-0.07980132339919399
0.9424169520020933,-0.07980132339919399
0.9444178372505054,-0.07980132339919399
0.9464187224989176,-0.07980132339919399
0.9484196077473296,-0.07980132339919399
0.9504204929957417,-0.07980132339919399
0.9524213782441537,-0.07980132339919399
0.9544222634925659,-0.07980132339919399
0.956423148740978,-0.07980132339919399
0.95842403398939,-0.07980132339919399
0.9604249192378022,-0.07980132339919399
0.9624258044862142,-0.07980132339919399
0.9644266897346263,-0.07980132339919399
0.9664275749830384,-0.07980132339919399
0.9684284602314505,-0.07980132339919399
0.9704293454798626,-0.07980132339919399
0.9724302307282746,-0.07980132339919399
0.9744311159766867,-0.07980132339919399
0.9764320012250989,-0.07980132339919399
0.9784328864735109,-0.07980132339919399
0.980433771721923,-0.07980132339919399
0.982434656970335,-0.08129812023122629
0.9844355422187472,-0.09130254647328695
0.9864364274671593,-0.09673469059926165
0.9884373127155713,-0.09673469059926165
0.9904381979639835,-0.09673469059926165
0.9924390832123955,-0.09673469059926165
0.9944399684608076,-0.09673469059926165
0.9964408537092198,-0.09673469059926165
0.9984417389576318,-0.09673469059926165
1.0004426242060438,-0.09673469059926165
1.002443509454456,-0.09673469059926165
1.004444394702868,-0.09673469059926165
1.0064452799512802,-0.09673469059926165
1.0084461651996923,-0.09673469059926165
1.0104470504481042,-0.09673469059926165
1.0124479356965164,-0.09673469059926165
1.0144488209449285,-0.09673469059926165
1.0164497061933406,-0.09673469059926165
1.0184505914417528,-0.09673469059926165
1.0204514766901647,-0.09673469059926165
1.0224523619385768,-0.09673469059926165
1.024453247186989,-0.09673469059926165
1.026454132435401,-0.09673469059926165
1.0284550176838132,-0.09673469059926165
1.030455902932225,-0.09673469059926165
1.0324567881806372,-0.09673469059926165
1.0344576734290494,-0.09673469059926165
1.0364585586774615,-0.09673469059926165
1.0384594439258736,-0.09673469059926165
1.0404603291742855,-0.09673469059926165
1.0424612144226977,-0.09673469059926165
1.0444620996711098,-0.09673469059926165
1.046462984919522,-0.09673469059926165
1.048463870167934,-0.09673469059926165
1.050464755416346,-0.09673469059926165
1.0524656406647581,-0.09673469059926165
1.0544665259131702,-0.09673469059926165
1.0564674111615824,-0.09673469059926165
1.0584682964099945,-0.09673469059926165
1.0604691816584064,-0.09673469059926165
1.0624700669068186,-0.09673469059926165
1.0644709521552307,-0.09673469059926165
1.0664718374036428,-0.09673469059926165
1.068472722652055,-0.09673469059926165
1.0704736079004669,-0.09673469059926165
1.072474493148879,-0.09673469059926165
1.0744753783972911,-0.09673469059926165
1.0764762636457033,-0.09673469059926165
1.0784771488941154,-0.09673469059926165
1.0804780341425273,-0.09673469059926165
1.0824789193909394,-0.09673469059926165
1.0844798046393516,-0.09673469059926165
1.0864806898877637,-0.09673469059926165
1.0884815751361758,-0.0933361883696936
1.0904824603845877,-0.0883339752486636
1.0924833456329999,-0.08333176212763349
1.094484230881412,-0.07980132339919399
1.0964851161298241,-0.07980132339919399
1.0984860013782363,-0.07679180636457628
1.1004868866266482,-0.07178959324354661
1.1024877718750603,-0.06678738012251606
1.1044886571234724,-0.06286795619912622
1.1064895423718846,-0.06286795619912622
1.1084904276202967,-0.06286795619912622
1.1104913128687086,-0.06286795619912622
1.1124921981171207,-0.06286795619912622
1.1144930833655329,-0.06356176020181614
1.116493968613945,-0.06856397332284636
1.1184948538623571,-0.07579773308859317
1.120495739110769,-0.08580215933065305
1.1224966243591812,-0.09203729628597068
1.1244975096075933,-0.0976491470224794
1.1264983948560054,-0.11265578638557106
1.1284992801044176,-0.12213474139936331
1.1305001653528295,-0.12213474139936331
1.1325010506012416,-0.12551504549115555
1.1345019358496538,-0.13051725861218577
1.1365028210980659,-0.1306014249993972
1.138503706346478,-0.13205500125421277
1.14050459159489,-0.13705721437524243
1.142505476843302,-0.13906810859943097
1.1445063620917142,-0.13906810859943097
1.1465072473401263,-0.13906810859943097
1.1485081325885385,-0.13906810859943097
1.1505090178369504,-0.13906810859943097
1.1525099030853625,-0.13906810859943097
1.1545107883337746,-0.13906810859943097
1.1565116735821868,-0.13906810859943097
1.158512558830599,-0.13906810859943097
1.1605134440790108,-0.13906810859943097
1.162514329327423,-0.13906810859943097
1.164515214575835,-0.13906810859943097
1.1665160998242472,-0.13906810859943097
1.1685169850726593,-0.13906810859943097
1.1705178703210712,-0.13906810859943097
1.1725187555694834,-0.13906810859943097
1.1745196408178955,-0.13906810859943097
1.1765205260663076,-0.13906810859943097
1.1785214113147198,-0.13906810859943097
1.1805222965631317,-0.13906810859943097
1.1825231818115438,-0.13906810859943097
1.184524067059956,-0.13906810859943097
1.186524952308368,-0.13906810859943097
1.1885258375567802,-0.13906810859943097
1.1905267228051921,-0.13906810859943097
1.1925276080536042,-0.13871931095873458
1.1945284933020164,-0.13705190658505784
1.1965293785504285,-0.1353845022113811
1.1985302637988406,-0.13371709783770414
1.2005311490472526,-0.13204969346402762
1.2025320342956647,-0.130382289090351
1.2045329195440768,-0.12871488471667414
1.206533804792489,-0.1270474803429973
1.208534690040901,-0.12538007596932044
1.210535575289313,-0.12371267159564392
1.2125364605377251,-0.12213474139936331
1.2145373457861373,-0.12213474139936331
1.2165382310345494,-0.12213474139936331
1.2185391162829615,-0.12213474139936331
1.2205400015313734,-0.12213474139936331
1.2225408867797856,-0.12213474139936331
1.2245417720281977,-0.12213474139936331
1.2265426572766098,-0.12213474139936331
1.228543542525022,-0.12213474139936331
1.2305444277734339,-0.08667566994387177
1.232545313021846,-0.026649112491509475
1.2345461982702581,0.046855440750805166
1.2365470835186703,0.12291683235057282
1.2385479687670824,0.202952242287061
1.2405488540154943,0.2727239025181766
1.2425497392639064,0.33275045997053876
1.2445506245123186,0.372258617081069
1.2465515097607307,0.4053564801601913
1.2485523950091428,0.425365332644312
1.2505532802575547,0.376800189839653
1.2525541655059669,0.23923932901131384
1.254555050754379,0.10167846818298154
1.2565559360027911,-0.02024336799453519
1.2585568212512033,0.15483409124152125
1.2605577064996152,0.22620946236409567
1.2625585917480273,0.11115856058039364
1.2645594769964394,0.02603904590289119
1.2665603622448516,-0.04399193779153132
1.2685612474932637,-0.060524945960537035
1.2705621327416756,-0.0741326034821378
1.2725630179900878,-0.08413702972419812
1.2745639032384999,-0.09120473148274333
1.276564788486912,-0.09620694460377388
1.2785656737353241,-0.10568362485034655
1.280566558983736,-0.11366805779932942
1.2825674442321482,-0.11366805779932942
1.2845683294805603,-0.11621579708789465
1.2865692147289725,-0.12121801020892486
1.2885700999773846,-0.12213474139936331
1.2905709852257967,-0.12275575285095142
1.2925718704742086,-0.1277579659719814
1.2945727557226208,-0.1306014249993972
1.296573640971033,-0.1306014249993972
1.298574526219445,-0.1306014249993972
1.3005754114678572,-0.1306014249993972
1.302576296716269,-0.1306014249993972
1.3045771819646812,-0.1306014249993972
1.3065780672130933,-0.1306014249993972
1.3085789524615055,-0.1306014249993972
1.3105798377099176,-0.1306014249993972
1.3125807229583295,-0.1306014249993972
1.3145816082067416,-0.1306014249993972
1.3165824934551538,-0.1306014249993972
1.318583378703566,-0.1306014249993972
1.320584263951978,-0.1306014249993972
1.32258514920039,-0.1306014249993972
1.324586034448802,-0.1306014249993972
1.3265869196972142,-0.1306014249993972
1.3285878049456263,-0.13819004845176663
1.3305886901940385,-0.15319668781485818
1.3325895754424504,-0.15600147579949875
1.3345904606908625,-0.15600147579949875
1.3365913459392746,-0.15600147579949875
1.3385922311876868,-0.15600147579949875
1.340593116436099,-0.15600147579949875
1.3425940016845108,-0.14496658000590223
1.344594886932923,-0.1306014249993972
1.346595772181335,-0.1306014249993972
1.3485966574297472,-0.13001756807910092
1.3505975426781593,-0.12835016370542418
1.3525984279265713,-0.12668275933174755
1.3545993131749834,-0.1250153549580706
1.3566001984233955,-0.12334795058439396
1.3586010836718077,-0.12213474139936331
1.3606019689202198,-0.12213474139936331
1.3626028541686317,-0.12213474139936331
1.3646037394170438,-0.12213474139936331
1.366604624665456,-0.12213474139936331
1.368605509913868,-0.12116114102837572
1.3706063951622802,-0.11615892790734517
1.3726072804106921,-0.11366805779932942
1.3746081656591043,-0.11366805779932942
1.3766090509075164,-0.11366805779932942
1.3786099361559285,-0.11366805779932942
1.3806108214043407,-0.11366805779932942
1.3826117066527526,-0.11366805779932942
1.3846125919011647,-0.11366805779932942
1.3866134771495768,-0.11000795733923896
1.388614362397989,-0.10481011423712194
1.390615247646401,-0.0948056879950615
1.392616132894813,-0.08653463437611497
1.3946170181432251,-0.08153242125508442
1.3966179033916373,-0.0765302081340542
1.3986187886400494,-0.07152799501302398
1.4006196738884615,-0.06652578189199343
1.4026205591368734,-0.06286795619912622
1.4046214443852856,-0.06286795619912622
1.4066223296336977,-0.06286795619912622
1.4086232148821098,-0.06286795619912622
1.410624100130522,-0.06286795619912622
1.4126249853789339,-0.06286795619912622
1.414625870627346,-0.06286795619912622
1.4166267558757581,-0.057881666448648894
1.4186276411241703,-0.0478772402065879
1.4206285263725824,-0.045934588999058446
1.4226294116209943,-0.047067423075581094
1.4246302968694065,-0.0570718493176422
1.4266311821178186,-0.06286795619912622
1.4286320673662307,-0.06286795619912622
1.4306329526146428,-0.06286795619912622
1.4326338378630548,-0.06286795619912622
1.434634723111467,-0.06286795619912622
1.436635608359879,-0.06286795619912622
1.4386364936082912,-0.06286795619912622
1.4406373788567033,-0.06612087332649064
1.4426382641051152,-0.07112308644752063
1.4446391493535273,-0.07612529956855085
1.4466400346019395,-0.08112751268958107
1.4486409198503516,-0.08612972581061162
1.4506418050987637,-0.09113193893164184
1.4526426903471756,-0.0961341520526715
1.4546435755955878,-0.10553803974814235
1.456644460844,-0.11460526189476639
1.458645346092412,-0.1196074750157966
1.4606462313408242,-0.12213474139936331
1.462647116589236,-0.12213474139936331
1.4646480018376482,-0.12414108608910823
1.4666488870860603,-0.1266421926496233
1.4686497723344725,-0.12914329921013845
1.4706506575828846,-0.1306014249993972
1.4726515428312965,-0.1306014249993972
1.4746524280797086,-0.13422512918393648
1.4766533133281208,-0.13906810859943097
1.478654198576533,-0.13906810859943097
1.480655083824945,-0.13906810859943097
1.482655969073357,-0.13906810859943097
1.484656854321769,-0.1391579619046973
1.4866577395701812,-0.1392969122691704
1.4886586248185933,-0.1394358626336435
1.4906595100670055,-0.13957481299811658
1.4926603953154174,-0.13971376336258956
1.4946612805638295,-0.13985271372706265
1.4966621658122417,-0.13999166409153585
1.4986630510606538,-0.14013061445600883
1.500663936309066,-0.1402695648204818
1.5026648215574778,-0.1404085151849549
1.50466570680589,-0.14054746554942799
1.506666592054302,-0.14068641591390108
1.5086674773027142,-0.14082536627837416
1.5106683625511264,-0.14096431664284725
1.5126692477995383,-0.14110326700732023
1.5146701330479504,-0.14124221737179332
1.5166710182963625,-0.1413811677362663
1.5186719035447747,-0.1415201181007394
1.5206727887931868,-0.14165906846521248
1.5226736740415987,-0.14179801882968546
1.5246745592900108,-0.14193696919415855
1.526675444538423,-0.14207591955863175
1.528676329786835,-0.14221486992310473
1.5306772150352472,-0.14235382028757781
1.5326781002836591,-0.1424927706520509
1.5346789855320713,-0.14263172101652388
1.5366798707804834,-0.14277067138099697
1.5386807560288955,-0.14290962174547006
1.5406816412773077,-0.14304857210994315
1.5426825265257196,-0.14318752247441624
1.5446834117741317,-0.14332647283888922
1.5466842970225438,-0.1434654232033623
1.548685182270956,-0.1436043735678353
1.550686067519368,-0.14374332393230838
1.55268695276778,-0.14388227429678146
1.5546878380161921,-0.14402122466125444
1.5566887232646043,-0.14416017502572764
1.5586896085130164,-0.14429912539020073
1.5606904937614285,-0.1444380757546737
1.5626913790098405,-0.1445770261191468
1.5646922642582526,-0.1447159764836199
1.5666931495066647,-0.14485492684809287
1.5686940347550768,-0.14499387721256596
1.570694920003489,-0.14513282757703905
1.572695805251901,-0.14527177794151214
1.574696690500313,-0.14541072830598512
1.5766975757487252,-0.1455496786704582
1.5786984609971373,-0.1456886290349313
1.5806993462455494,-0.14582757939940438
1.5827002314939613,-0.14596652976387736
1.5847011167423735,-0.14610548012835034
1.5867020019907856,-0.14624443049282343
1.5887028872391977,-0.14638338085729663
1.5907037724876099,-0.1465223312217696
1.5927046577360218,-0.1466612815862427
1.594705542984434,-0.1468002319507158
1.596706428232846,-0.14693918231518888
1.5987073134812582,-0.14707813267966197
1.6007081987296703,-0.14721708304413494
1.6027090839780822,-0.14735603340860803
1.6047099692264943,-0.147494983773081
1.6067108544749065,-0.14753479219946486
1.6087117397233186,-0.14753479219946486
1.6107126249717307,-0.14753479219946486
1.6127135102201426,-0.14753479219946486
1.6147143954685548,-0.14753479219946486
1.616715280716967,-0.14753479219946486
1.618716165965379,-0.14753479219946486
1.6207170512137912,-0.14753479219946486
1.622717936462203,-0.14753479219946486
1.6247188217106152,-0.14753479219946486
1.6267197069590273,-0.14753479219946486
1.6287205922074395,-0.14753479219946486
1.6307214774558516,-0.14753479219946486
1.6327223627042635,-0.14782292938090968
1.6347232479526757,-0.14949033375458654
1.6367241332010878,-0.15115773812826339
1.6387250184495,-0.15282514250194013
1.640725903697912,-0.15449254687561687
1.642726788946324,-0.15592223807460137
1.644727674194736,-0.15508853588776295
1.6467285594431482,-0.15425483370092452
1.6487294446915604,-0.1534211315140862
1.6507303299399725,-0.1525874293272479
1.6527312151883844,-0.15175372714040958
1.6547321004367965,-0.15092002495357115
1.6567329856852087,-0.15008632276673273
1.6587338709336208,-0.1492526205798944
1.660734756182033,-0.148418918393056
1.6627356414304448,-0.14758521620621767
1.664736526678857,-0.14753479219946486
1.666737411927269,-0.14753479219946486
1.6687382971756812,-0.14753479219946486
1.6707391824240934,-0.14753479219946486
1.6727400676725053,-0.14753479219946486
1.6747409529209174,-0.14753479219946486
1.6767418381693295,-0.14753479219946486
1.6787427234177417,-0.14753479219946486
1.6807436086661538,-0.14753479219946486
1.6827444939145657,-0.14753479219946486
1.6847453791629778,-0.14753479219946486
1.68674626441139,-0.14753479219946486
1.688747149659802,-0.14753479219946486
1.6907480349082142,-0.14753479219946486
1.6927489201566261,-0.14753479219946486
1.6947498054050383,-0.14753479219946486
1.6967506906534504,-0.14746654918280666
1.6987515759018625,-0.1424643360617761
1.7007524611502747,-0.13585613728206047
1.7027533463986866,-0.12585171104000126
1.7047542316470987,-0.1189910130986519
1.7067551168955108,-0.11398879997762135
1.708756002143923,-0.11366805779932942
1.7107568873923351,-0.11366805779932942
1.712757772640747,-0.11366805779932942
1.7147586578891592,-0.11366805779932942
1.7167595431375713,-0.11366805779932942
1.7187604283859834,-0.11366805779932942
1.7207613136343956,-0.11449607306811393
1.7227621988828075,-0.1194982861891436
1.7247630841312196,-0.1245004993101737
1.7267639693796317,-0.12950271243120393
1.7287648546280439,-0.1306014249993972
1.730765739876456,-0.13104045507323103
1.732766625124868,-0.13604266819426059
1.73476751037328,-0.14104488131529092
1.7367683956216922,-0.14604709443632136
1.7387692808701043,-0.14753479219946486
1.7407701661185164,-0.14753479219946486
1.7427710513669283,-0.14753479219946486
1.7447719366153405,-0.14912257972037457
1.7467728218637526,-0.15412479284140468
1.7487737071121647,-0.1591270059624349
1.7507745923605769,-0.16412921908346512
1.7527754776089888,-0.1691314322044951
1.754776362857401,-0.17413364532552555
1.756777248105813,-0.17913585844655566
1.7587781333542252,-0.17729670914762174
1.7607790186026373,-0.16979338946607603
1.7627799038510492,-0.16229006978453153
1.7647807890994613,-0.15600147579949875
1.7667816743478735,-0.15600147579949875
1.7687825595962856,-0.15600147579949875
1.7707834448446977,-0.15600147579949875
1.7727843300931097,-0.15600147579949875
1.7747852153415218,-0.15600147579949875
1.776786100589934,-0.15600147579949875
1.778786985838346,-0.15796005037758354
1.7807878710867582,-0.16296226349861365
1.78278875633517,-0.16796447661964353
1.7847896415835822,-0.17296668974067408
1.7867905268319944,-0.1779689028617042
1.7887914120804065,-0.18297111598273452
1.7907922973288186,-0.18797332910376496
1.7927931825772307,-0.18986821019963418
1.7947940678256427,-0.18986821019963418
1.7967949530740548,-0.18986821019963418
1.798795838322467,-0.1889827570584962
1.800796723570879,-0.18523109721772357
1.8027976088192912,-0.18147943737695094
1.804798494067703,-0.17772777753617874
1.8067993793161152,-0.17397611769540589
1.8088002645645274,-0.17022445785463303
1.8108011498129395,-0.1664727980138604
1.8128020350613516,-0.16446815939953263
1.8148029203097635,-0.16446815939953263
1.8168038055581757,-0.16446815939953263
1.8188046908065878,-0.16446815939953263
1.820805576055,-0.16446815939953263
1.822806461303412,-0.16446815939953263
1.824807346551824,-0.16446815939953263
1.826808231800236,-0.160990040317197
1.8288091170486482,-0.15604242160949466
1.8308100022970604,-0.1710490609725862
1.8328108875454725,-0.1814015265996003
1.8348117727938844,-0.1814015265996003
1.8368126580422965,-0.1814015265996003
1.8388135432907087,-0.1814015265996003
1.8408144285391208,-0.13050588477606773
1.842815313787533,-0.07664394649514328
1.8448161990359448,-0.026621815284843753
1.846817084284357,-0.044103401385412355
1.8488179695327691,-0.1191365982008652
1.8508188547811812,-0.10093618565816753
1.8528197400295934,-0.06128016867820929
1.8548206252780053,0.003748601895180226
1.8568215105264174,0.07802202645851175
1.8588223957748296,0.16305964951602514
1.8608232810232417,0.17208137631820086
1.8628241662716538,0.158325290235367
1.8648250515200657,0.14456920415253538
1.8668259367684779,0.1308131180697022
1.86882682201689,0.11705703198686812
1.8708277072653021,0.10330094590403494
1.8728285925137143,0.08954485982120175
1.8748294777621262,-0.010420923130248005
1.8768303630105383,-0.08746728893710898
1.8788312482589504,-0.11247835454226152
1.8808321335073626,-0.12827661289858316
1.8828330187557747,-0.1382810391406435
1.8848339040041866,-0.14828546538270337
1.8868347892525987,-0.15752708634967583
1.8888356745010109,-0.16419670384438267
1.890836559749423,-0.17086632133908985
1.8928374449978351,-0.17753593883379726
1.894838330246247,-0.18420555632850344
1.8968392154946592,-0.18986821019963418
1.8988401007430713,-0.18986821019963418
1.9008409859914834,-0.18986821019963418
1.9028418712398956,-0.18986821019963418
1.9048427564883075,-0.18986821019963418
1.9068436417367196,-0.18986821019963418
1.9088445269851317,-0.18986821019963418
1.9108454122335439,-0.18986821019963418
1.912846297481956,-0.18986821019963418
1.914847182730368,-0.18986821019963418
1.91684806797878,-0.18986821019963418
1.9188489532271922,-0.18986821019963418
1.9208498384756043,-0.18986821019963418
1.9228507237240164,-0.18986821019963418
1.9248516089724284,-0.18986821019963418
1.9268524942208405,-0.18986821019963418
1.9288533794692526,-0.18986821019963418
1.9308542647176647,-0.18986821019963418
1.9328551499660769,-0.18986821019963418
1.9348560352144888,-0.18986821019963418
1.936856920462901,-0.18986821019963418
1.938857805711313,-0.18746735588025676
1.9408586909597252,-0.18460894838252506
1.9428595762081373,-0.1817505408847936
1.9448604614565492,-0.17889213338706234
1.9468613467049614,-0.17603372588933064
1.9488622319533735,-0.17317531839159905
1.9508631172017856,-0.17031691089386747
1.9528640024501978,-0.16745850339613588
1.9548648876986097,-0.16460009589840452
1.9568657729470218,-0.16174168840067282
1.958866658195434,-0.15888328090294124
1.960867543443846,-0.15602487340520976
1.9628684286922582,-0.15600147579949875
1.96486931394067,-0.15600147579949875
1.9668701991890822,-0.15600147579949875
1.9688710844374944,-0.15600147579949875
1.9708719696859065,-0.15600147579949875
1.9728728549343186,-0.15600147579949875
1.9748737401827305,-0.15600147579949875
1.9768746254311427,-0.15600147579949875
1.9788755106795548,-0.15600147579949875
1.980876395927967,-0.15600147579949875
1.982877281176379,-0.15600147579949875
1.984878166424791,-0.15600147579949875
1.9868790516732031,-0.15600147579949875
1.9888799369216152,-0.1537449067153408
1.9908808221700274,-0.14874269359431058
1.9928817074184395,-0.14753479219946486
1.9948825926668514,-0.14621542721074154
1.9968834779152635,-0.1262065747266209
1.9988843631636757,-0.11180047391012193
2.0008852484120876,-0.10679826078909205
2.0028861336604997,-0.10179604766806194
2.004887018908912,-0.09679383454703205
2.006887904157324,-0.09673469059926165
2.008888789405736,-0.09525609190500484
2.0108896746541483,-0.0902538787839744
2.0128905599025604,-0.08826800699922777
2.0148914451509725,-0.08826800699922777
2.0168923303993846,-0.07915983904260682
2.0188932156477963,-0.07024502629985463
2.0208941008962085,-0.06524281317882408
2.0228949861446206,-0.06286795619912622
2.0248958713930327,-0.06286795619912622
2.026896756641445,-0.06286795619912622
2.028897641889857,-0.06286795619912622
2.030898527138269,-0.06286795619912622
2.0328994123866813,-0.06286795619912622
2.0349002976350934,-0.06286795619912622
2.0369011828835055,-0.06286795619912622
2.038902068131917,-0.06286795619912622
2.0409029533803293,-0.06286795619912622
2.0429038386287415,-0.06286795619912622
2.0449047238771536,-0.06286795619912622
2.0469056091255657,-0.06286795619912622
2.048906494373978,-0.06286795619912622
2.05090737962239,-0.06286795619912622
2.052908264870802,-0.06286795619912622
2.0549091501192143,-0.06286795619912622
2.0569100353676264,-0.06586609939763455
2.0589109206160385,-0.0708683125186651
2.06091180586445,-0.07587052563969454
2.0629126911128624,-0.07980132339919399
2.0649135763612745,-0.07980132339919399
2.0669144616096866,-0.08241048140275109
2.0689153468580987,-0.08741269452378153
2.070916232106511,-0.08826800699922777
2.072917117354923,-0.08895043716580864
2.074918002603335,-0.09395265028683919
2.0769188878517473,-0.09673469059926165
2.0789197731001594,-0.09673469059926165
2.080920658348571,-0.10049260604989463
2.0829215435969832,-0.10549481917092518
2.0849224288453954,-0.11049703229195573
2.0869233140938075,-0.11366805779932942
2.0889241993422196,-0.11366805779932942
2.0909250845906318,-0.11366805779932942
2.092925969839044,-0.11366805779932942
2.094926855087456,-0.11366805779932942
2.096927740335868,-0.11366805779932942
2.0989286255842803,-0.11366805779932942
2.100929510832692,-0.11366805779932942
2.102930396081104,-0.11366805779932942
2.1049312813295162,0.8305286720772574
2.1069321665779284,1.6558688146077487
2.1089330518263405,1.6558688146077487
2.1109339370747526,1.1143582026592562
2.1129348223231648,0.06889566036401573
2.114935707571577,-0.11366805779932942
2.116936592819989,-0.11366805779932942
2.118937478068401,-0.11366805779932942
2.120938363316813,-0.11366805779932942
2.122939248565225,-0.11366805779932942
2.124940133813637,0.09762597037714926
2.1269410190620492,0.3802510117153385
2.1289419043104614,0.6628760530535623
2.1309427895588735,0.9455010943917866
2.1329436748072856,1.2281261357300108
2.1349445600556978,1.5107511770682098
2.13694544530411,1.7933762184063968
2.138946330552522,1.79491396104839
2.1409472158009337,1.7842157308036404
2.142948101049346,1.7592046651984878
2.144948986297758,1.7460405872851639
2.14694987154617,1.7410383741641335
2.1489507567945823,1.7270371819131363
2.1509516420429944,1.7120305425500462
2.1529525272914065,1.6970239031869547
2.1549534125398186,1.6820172638238633
2.156954297788231,1.6670106244607714
2.158955183036643,1.660224993837749
2.1609560682850546,1.6558688146077487
2.1629569535334667,1.6558688146077487
2.164957838781879,1.6580525911408044
2.166958724030291,1.6630548042618347
2.168959609278703,1.671778536557948
2.1709604945271153,1.6817829628000092
2.1729613797755274,1.691787389042069
2.1749622650239395,1.7035866066222347
2.1769631502723517,1.7185932459853261
2.178964035520764,1.7302673513682851
2.1809649207691755,1.740271777610344
2.1829658060175876,1.7648870337188782
2.1849666912659997,1.7842748747514112
2.186967576514412,1.7892770878724416
2.188968461762824,1.7972228497786538
2.190969347011236,1.8072272760207149
2.1929702322596483,1.8127504108355672
2.1949711175080604,1.8167358030083922
2.1969720027564725,1.8167358030083922
2.1989728880048847,1.2291861772551673
2.2009737732532964,0.07867715941840403
2.2029746585017085,-0.1306014249993972
2.2049755437501206,-0.1306014249993972
2.2069764289985327,-0.1306014249993972
2.208977314246945,-0.1306014249993972
2.210978199495357,-0.1306014249993972
2.212979084743769,-0.1306014249993972
2.2149799699921813,-0.1306014249993972
2.2169808552405934,-0.1306014249993972
2.2189817404890055,-0.1306014249993972
2.2209826257374172,-0.1306014249993972
2.2229835109858294,-0.1306014249993972
2.2249843962342415,-0.1306014249993972
2.2269852814826536,-0.1306014249993972
2.2289861667310658,-0.1306014249993972
2.230987051979478,-0.1306014249993972
2.23298793722789,-0.1306014249993972
2.234988822476302,-0.1306014249993972
2.2369897077247143,-0.1306014249993972
2.2389905929731264,-0.1306014249993972
2.240991478221538,-0.1306014249993972
2.2429923634699502,0.42486260908835416
2.2449932487183624,1.5203472825938933
2.2469941339667745,1.7236022834080194
2.2489950192151866,1.7290890219473258
2.2509959044635988,1.7741089400366006
2.252996789712011,1.7310862675681422
2.254997674960423,1.5710154476951659
2.256998560208835,1.410944627822205
2.2589994454572473,1.2508738079492483
2.261000330705659,1.0908029880763075
2.263001215954071,0.9307321682033313
2.2650021012024832,0.7706613483303547
2.2670029864508954,0.6105905284573921
2.2690038716993075,0.4505197085844367
2.2710047569477196,0.2904488887114608
2.2730056421961318,0.13037806883848446
2.275006527444544,-0.029692751034492093
2.277007412692956,-0.09673469059926165
2.279008297941368,-0.09673469059926165
2.28100918318978,-0.09673469059926165
2.283010068438192,-0.09673469059926165
2.285010953686604,-0.09673469059926165
2.2870118389350163,-0.09673469059926165
2.2890127241834284,-0.09673469059926165
2.2910136094318405,-0.09673469059926165
2.2930144946802526,-0.09673469059926165
2.295015379928665,-0.09673469059926165
2.297016265177077,-0.09460550847953153
2.299017150425489,-0.08960329535850098
2.3010180356739007,-0.08826800699922777
2.303018920922313,-0.08826800699922777
2.305019806170725,-0.08826800699922777
2.307020691419137,-0.08652781007444899
2.3090215766675493,-0.08152559695341843
2.3110224619159614,-0.07652338383238799
2.3130233471643735,-0.07152117071135744
2.3150242324127857,-0.0713346397991601
2.317025117661198,-0.0713346397991601
2.31902600290961,-0.0713346397991601
2.3210268881580216,-0.0713346397991601
2.3230277734064337,-0.0713346397991601
2.325028658654846,-0.0713346397991601
2.327029543903258,-0.07229686633403853
2.32903042915167,-0.07729907945506842
2.3310313144000823,-0.08230129257609864
2.3330321996484944,-0.08730350569712908
2.3350330848969065,-0.09230571881815952
2.3370339701453187,-0.09788117327911838
2.339034855393731,-0.10788559952117815
2.3410357406421425,-0.11366805779932942
2.3430366258905546,-0.11366805779932942
2.3450375111389667,-0.11366805779932942
2.347038396387379,-0.11385231394430662
2.349039281635791,-0.11885452706533717
2.351040166884203,-0.12213474139936331
2.3530410521326153,-0.12213474139936331
2.3550419373810274,-0.12539448282839372
2.3570428226294395,-0.13039669594942427
2.3590437078778517,-0.1306014249993972
2.3610445931262634,-0.1306014249993972
2.3630454783746755,-0.1306014249993972
2.3650463636230876,-0.1306014249993972
2.3670472488714998,-0.1306014249993972
2.369048134119912,-0.1306014249993972
2.371049019368324,-0.13154545339650014
2.373049904616736,-0.13654766651753059
2.3750507898651483,-0.1415498796385608
2.3770516751135604,-0.1465520927595907
2.3790525603619725,-0.14753479219946486
2.3810534456103842,-0.1458696625930096
2.3830543308587964,-0.13086302322991816
2.3850552161072085,-0.12213474139936331
2.3870561013556206,-0.12213474139936331
2.3890569866040328,-0.12213474139936331
2.391057871852445,-0.12213474139936331
2.393058757100857,-0.12213474139936331
2.395059642349269,-0.12383854204859213
2.3970605275976813,-0.12884075516962257
2.3990614128460934,-0.13384296829065268
2.401062298094505,-0.13884518141168134
2.4030631833429172,-0.1438473945327119
2.4050640685913294,-0.14884960765374233
2.4070649538397415,-0.15385182077477288
2.4090658390881536,-0.15600147579949875
2.4110667243365658,-0.15600147579949875
2.413067609584978,-0.15600147579949875
2.41506849483339,-0.15600147579949875
2.417069380081802,-0.15600147579949875
2.4190702653302143,-0.15600147579949875
2.421071150578626,-0.15600147579949875
2.423072035827038,-0.15600147579949875
2.4250729210754502,-0.15600147579949875
2.4270738063238624,-0.15600147579949875
2.4290746915722745,-0.15600147579949875
2.4310755768206866,-0.15600147579949875
2.4330764620690988,-0.15600147579949875
2.435077347317511,-0.15600147579949875
2.437078232565923,-0.15600147579949875
2.439079117814335,-0.15600147579949875
2.441080003062747,-0.15600147579949875
2.443080888311159,-0.1463314403390611
2.445081773559571,-0.13132480097596955
2.4470826588079833,-0.054424020271304885
2.4490835440563954,0.00032735199338795873
2.4510844293048075,-0.01718039393021875
2.4530853145532197,-0.03468813985382557
2.455086199801632,-0.052195885777432394
2.457087085050044,-0.006308143992973525
2.459087970298456,0.04962383245991364
2.4610888555468677,0.10965038991225862
2.46308974079528,0.17456769689177654
2.465090626043692,0.24459868058620382
2.467091511292104,0.3146296642806309
2.4690923965405163,0.3753250032962284
2.4710932817889284,0.3553161508121091
2.4730941670373405,0.3188561817789669
2.4750950522857527,0.2588296243266007
2.477095937534165,0.11613802602917234
2.479096822782577,-0.05453093433074385
2.4810977080309886,-0.059533147451773294
2.4830985932794007,-0.06620276494648092
2.485099478527813,-0.07620719118854069
2.487100363776225,-0.08621161743060124
2.489101249024637,-0.09621604367266223
2.4911021342730493,-0.10622046991472323
2.4931030195214614,-0.11494647697805671
2.4951039047698735,-0.1199486900990866
2.4971047900182857,-0.12495090322011682
2.499105675266698,-0.12995311634114737
2.5011065605151095,-0.1436631383877358
2.5031074457635216,-0.1546673248238345
2.5051083310119338,-0.14716400514228867
2.507109216260346,-0.1396606854607434
2.509110101508758,-0.13215736577919868
2.51111098675717,-0.1306014249993972
2.5131118720055823,-0.1306014249993972
2.5151127572539944,-0.1306014249993972
2.5171136425024065,-0.1306014249993972
2.5191145277508187,-0.1306014249993972
2.5211154129992304,-0.1306014249993972
2.5231162982476425,-0.1306014249993972
2.5251171834960546,-0.1306014249993972
2.5271180687444668,-0.1306014249993972
2.529118953992879,-0.1306014249993972
2.531119839241291,-0.1306014249993972
2.533120724489703,-0.1306014249993972
2.5351216097381153,-0.1306014249993972
2.5371224949865274,-0.1306014249993972
2.5391233802349396,-0.1306014249993972
2.5411242654833512,-0.1306014249993972
2.5431251507317634,-0.1306014249993972
2.5451260359801755,-0.1436085439744107
2.5471269212285876,-0.15600147579949875
2.5491278064769998,-0.15600147579949875
2.551128691725412,-0.15600147579949875
2.553129576973824,-0.15600147579949875
2.555130462222236,-0.15600147579949875
2.5571313474706483,-0.15600147579949875
2.5591322327190604,-0.15600147579949875
2.561133117967472,-0.15600147579949875
2.5631340032158842,-0.15600147579949875
2.5651348884642964,-0.1488860039292913
2.5671357737127085,-0.13897484314333064
2.5691366589611206,-0.13397263002230086
2.5711375442095328,-0.1306014249993972
2.573138429457945,-0.1306014249993972
2.575139314706357,-0.12743267425924365
2.577140199954769,-0.1224304611382131
2.5791410852031813,-0.12213474139936331
2.5811419704515934,-0.1208927184961871
2.583142855700005,-0.11589050537515766
2.5851437409484173,-0.11366805779932942
2.5871446261968294,-0.11366805779932942
2.5891455114452415,-0.11366805779932942
2.5911463966936537,-0.11366805779932942
2.593147281942066,-0.11366805779932942
2.595148167190478,-0.11366805779932942
2.59714905243889,-0.11366805779932942
2.599149937687302,-0.11366805779932942
2.6011508229357143,-0.11181184774622577
2.603151708184126,-0.09180299526211078
2.605152593432538,-0.07579773308859217
2.6071534786809503,-0.06579330684653106
2.6091543639293624,-0.059328418401798144
2.6111552491777745,-0.05440127259909233
2.6131561344261867,-0.05440127259909233
2.615157019674599,-0.05440127259909233
2.617157904923011,-0.05440127259909233
2.619158790171423,-0.05125071999671438
2.621159675419835,-0.046248506875683826
2.623160560668247,-0.03655799851025043
2.625161445916659,-0.029001221798990784
2.627162331165071,-0.029001221798990784
2.6291632164134833,-0.029001221798990784
2.6311641016618954,-0.029001221798990784
2.6331649869103075,-0.029001221798990784
2.6351658721587197,-0.029001221798990784
2.637166757407132,-0.029001221798990784
2.639167642655544,-0.024256057374036022
2.641168527903956,-0.01425163113197625
2.6431694131523678,-0.012067854598923011
2.64517029840078,-0.012067854598923011
2.647171183649192,-0.012067854598923011
2.649172068897604,-0.016035048633975424
2.6511729541460163,-0.026039474876035085
2.6531738393944284,-0.029001221798990784
2.6551747246428405,-0.029001221798990784
2.6571756098912527,-0.029001221798990784
2.659176495139665,-0.0321904454441434
2.661177380388077,-0.042194871686204394
2.6631782656364886,-0.04906694346366036
2.6651791508849008,-0.05406915658469025
2.667180036133313,-0.0590713697057208
2.669180921381725,-0.06286795619912622
2.671181806630137,-0.06286795619912622
2.6731826918785493,-0.06561132546877813
2.6751835771269614,-0.07061353858980801
2.6771844623753736,-0.0713346397991601
2.6791853476237857,-0.07215128123183501
2.681186232872198,-0.07715349435286556
2.6831871181206095,-0.07980132339919399
2.6851880033690216,-0.07980132339919399
2.6871888886174338,-0.07980132339919399
2.689189773865846,-0.07980132339919399
2.691190659114258,-0.07980132339919399
2.69319154436267,-0.07980132339919399
2.6951924296110823,-0.07980132339919399
2.6971933148594944,-0.07980132339919399
2.6991942001079066,-0.07980132339919399
2.7011950853563187,-0.07980132339919399
2.7031959706047304,-0.07980132339919399
2.7051968558531425,-0.07980132339919399
2.7071977411015546,-0.07980132339919399
2.7091986263499668,-0.07980132339919399
2.711199511598379,-0.07980132339919399
2.713200396846791,-0.07980132339919399
2.715201282095203,-0.07980132339919399
2.7172021673436153,-0.07912003061622486
2.7192030525920274,-0.07786947733596716
2.7212039378404396,-0.07661892405570947
2.7232048230888513,-0.07536837077545222
2.7252057083372634,-0.07411781749519475
2.7272065935856755,-0.07286726421493717
2.7292074788340877,-0.07161671093467958
2.7312083640825,-0.0700433302728426
2.733209249330912,-0.06837592589916575
2.735210134579324,-0.06670852152548912
2.737211019827736,-0.06504111715181238
2.7392119050761483,-0.06337371277813564
2.7412127903245604,-0.07332278635113343
2.743213675572972,-0.08827093169994171
2.7452145608213843,-0.08898553357437466
2.7472154460697964,-0.08970013544880762
2.7492163313182085,-0.09041473732324057
2.7512172165666207,-0.09112933919767341
2.753218101815033,-0.09184394107210636
2.755218987063445,-0.0925585429465392
2.757219872311857,-0.09327314482097215
2.759220757560269,-0.093987746695405
2.7612216428086813,-0.09470234856983784
2.763222528057093,-0.09541695044427068
2.765223413305505,-0.09613155231870363
2.7672242985539173,-0.09673469059926165
2.7692251838023294,-0.09673469059926165
2.7712260690507415,-0.09673469059926165
2.7732269542991537,-0.09673469059926165
2.775227839547566,-0.09673469059926165
2.777228724795978,-0.09556091071274087
2.77922961004439,-0.08055427134964932
2.781230495292802,-0.0713346397991601
2.783231380541214,-0.0713346397991601
2.785232265789626,-0.07101948114041234
2.787233151038038,-0.0705647344930459
2.7892340362864503,-0.07010998784567946
2.7912349215348624,-0.06965524119831301
2.7932358067832745,-0.06920049455094668
2.7952366920316867,-0.06874574790358035
2.797237577280099,-0.06829100125621401
2.799238462528511,-0.06783625460884757
2.801239347776923,-0.06738150796148112
2.8032402330253348,-0.06692676131411479
2.805241118273747,-0.06647201466674835
2.807242003522159,-0.06601726801938201
2.809242888770571,-0.06556252137201557
2.8112437740189833,-0.06510777472464913
2.8132446592673954,-0.0646530280772829
2.8152455445158076,-0.06419828142991646
2.8172464297642197,-0.06374353478255013
2.819247315012632,-0.06328878813518368
2.821248200261044,-0.06286795619912622
2.8232490855094556,-0.06286795619912622
2.8252499707578678,-0.06286795619912622
2.82725085600628,-0.06286795619912622
2.829251741254692,-0.06286795619912622
2.831252626503104,-0.06286795619912622
2.8332535117515163,-0.06286795619912622
2.8352543969999284,-0.06743341401354797
2.8372552822483406,-0.08244005337663951
2.8392561674967527,-0.08979778795597837
2.841257052745165,-0.09229889451649365
2.8432579379935765,-0.09480000107700803
2.8452588232419886,-0.09673469059926165
2.8472597084904008,-0.09673469059926165
2.849260593738813,-0.09539940223998677
2.851261478987225,-0.0928982956794715
2.853262364235637,-0.09039718911895644
2.8552632494840493,-0.0878960825584415
2.8572641347324614,-0.08539497599792623
2.8592650199808736,-0.08289386943741106
2.8612659052292857,-0.08039276287689578
2.8632667904776974,-0.07980132339919399
2.8652676757261095,-0.07980132339919399
2.8672685609745217,-0.07980132339919399
2.869269446222934,-0.07980132339919399
2.871270331471346,-0.07980132339919399
2.873271216719758,-0.07980132339919399
2.87527210196817,-0.07980132339919399
2.8772729872165823,-0.07980132339919399
2.8792738724649944,-0.07980132339919399
2.8812747577134066,-0.07980132339919399
2.8832756429618183,-0.07980132339919399
2.8852765282102304,-0.07980132339919399
2.8872774134586425,-0.07980132339919399
2.8892782987070547,-0.07980132339919399
2.891279183955467,-0.07980132339919399
2.893280069203879,-0.07980132339919399
2.895280954452291,-0.07980132339919399
2.897281839700703,-0.07980132339919399
2.8992827249491153,-0.07980132339919399
2.9012836101975275,-0.07980132339919399
2.903284495445939,-0.07753793001337017
2.9052853806943513,-0.07253571689234029
2.9072862659427634,-0.06753350377130996
2.9092871511911755,-0.06219462510143259
2.9112880364395877,-0.052190198859371484
2.913288921688,-0.045934588999058446
2.915289806936412,-0.045934588999058446
2.917290692184824,-0.045934588999058446
2.919291577433236,-0.045934588999058446
2.9212924626816483,-0.045934588999058446
2.92329334793006,-0.04742001199498125
2.925294233178472,-0.05242222511601169
2.9272951184268843,-0.05440127259909233
2.9292960036752964,-0.05440127259909233
2.9312968889237085,-0.05896218087906835
2.9332977741721207,-0.06506083180107147
2.935298659420533,-0.07506525804313247
2.937299544668945,-0.08506968428519279
2.939300429917357,-0.09507411052725245
2.941301315165769,-0.09673469059926165
2.943302200414181,-0.09673469059926165
2.945303085662593,-0.09673469059926165
2.947303970911005,-0.09897988584731021
2.9493048561594173,-0.10398209896834076
2.9513057414078294,-0.11276724997944598
2.9533066266562416,-0.12213474139936331
2.9553075119046537,-0.12213474139936331
2.957308397153066,-0.12213474139936331
2.959309282401478,-0.12213474139936331
2.96131016764989,-0.12213474139936331
2.9633110528983018,-0.12213474139936331
2.965311938146714,-0.12213474139936331
2.967312823395126,-0.12213474139936331
2.969313708643538,-0.12213474139936331
2.9713145938919503,-0.12213474139936331
2.9733154791403624,-0.12213474139936331
2.9753163643887746,-0.12213474139936331
2.9773172496371867,-0.12213474139936331
2.979318134885599,-0.12213474139936331
2.981319020134011,-0.12213474139936331
2.9833199053824226,-0.12213474139936331
2.9853207906308348,-0.11382729150486393
2.987321675879247,-0.10544753650938332
2.989322561127659,-0.10723404119546565
2.991323446376071,-0.10902054588154797
2.9933243316244833,-0.1108070505676303
2.9953252168728954,-0.11259355525371262
2.9973261021213076,-0.11438005993979494
2.9993269873697197,-0.11616656462587704
3.001327872618132,-0.11795306931195926
3.0033287578665435,-0.11973957399804114
3.0053296431149557,-0.12152607868412346
3.007330528363368,-0.12331258337020579
3.00933141361178,-0.1250990880562879
3.011332298860192,-0.1268855927423701
3.013333184108604,-0.12867209742845243
3.0153340693570163,-0.13045860211453475
3.0173349546054284,-0.13224510680061696
3.0193358398538406,-0.1340316114866994
3.0213367251022527,-0.1358181161727816
3.0233376103506644,-0.13760462085886338
3.0253384955990765,-0.1393911255449456
3.0273393808474887,-0.14117763023102792
3.029340266095901,-0.14296413491711013
3.031341151344313,-0.14475063960319245
3.033342036592725,-0.14653714428927456
3.035342921841137,-0.14753479219946486
3.0373438070895493,-0.14753479219946486
3.0393446923379615,-0.14753479219946486
3.0413455775863736,-0.14753479219946486
3.0433464628347853,-0.14753479219946486
3.0453473480831974,-0.11841777175871337
3.0473482333316095,-0.038382361822235644
3.0493491185800217,0.024865266016382837
3.051350003828434,0.07988961034771858
3.053350889076846,-0.0021544190457577495
3.055351774325258,-0.04855967037315734
3.05735265957367,0.0014624608371411885
3.0593535448220823,0.0603903057213131
3.0613544300704945,0.12541907629470994
3.063355315318906,0.1420049728016134
3.0653562005673183,0.15325995232393186
3.0673570858157304,0.16451493184625055
3.0693579710641425,0.17576991136856857
3.0713588563125547,0.1870248908908857
3.073359741560967,0.19827987041320416
3.075360626809379,0.19631447153343495
3.077361512057791,0.10627463535488568
3.079362397306203,0.027187803349950745
3.0813632825546153,-0.03784096722344599
3.0833641678030275,-0.06931464650609043
3.085365053051439,-0.08905962599246109
3.0873659382998513,-0.10406626535555275
3.0893668235482634,-0.11546967343910108
3.0913677087966756,-0.12047188656013152
3.0933685940450877,-0.12213474139936331
3.0953694792935,-0.12213474139936331
3.097370364541912,-0.12213474139936331
3.099371249790324,-0.12213474139936331
3.101372135038736,-0.12213474139936331
3.1033730202871483,-0.1280354875730606
3.10537390553556,-0.13803991381511937
3.107374790783972,-0.13906810859943097
3.1093756760323843,-0.13906810859943097
3.1113765612807964,-0.13906810859943097
3.1133774465292086,-0.13906810859943097
3.1153783317776207,-0.13906810859943097
3.117379217026033,-0.13906810859943097
3.119380102274445,-0.13906810859943097
3.121380987522857,-0.13906810859943097
3.123381872771269,-0.13906810859943097
3.125382758019681,-0.13906810859943097
3.127383643268093,-0.14648839927737767
3.129384528516505,-0.15600147579949875
3.1313854137649173,-0.15600147579949875
3.1333862990133294,-0.15600147579949875
3.1353871842617416,-0.15600147579949875
3.1373880695101537,-0.14603799536742923
3.139388954758566,-0.13103135600433768
3.141389840006978,-0.1306014249993972
3.14339072525539,-0.1306014249993972
3.145391610503802,-0.1306014249993972
3.147392495752214,-0.1306014249993972
3.149393381000626,-0.1306014249993972
3.151394266249038,-0.1306014249993972
3.1533951514974503,-0.1306014249993972
3.1553960367458624,-0.1306014249993972
3.1573969219942746,-0.1306014249993972
3.1593978072426867,-0.1306014249993972
3.161398692491099,-0.1306014249993972
3.163399577739511,-0.1306014249993972
3.1654004629879227,-0.1306014249993972
3.167401348236335,-0.1306014249993972
3.169402233484747,-0.1306014249993972
3.171403118733159,-0.1306014249993972
3.173404003981571,-0.1306014249993972
3.1754048892299833,-0.1306014249993972
3.1774057744783955,-0.1306014249993972
3.1794066597268076,-0.1306014249993972
3.1814075449752197,-0.1306014249993972
3.183408430223632,-0.1306014249993972
3.1854093154720435,-0.1257607203511235
3.1874102007204557,-0.12075850723009318
3.189411085968868,-0.1157562941090633
3.19141197121728,-0.11366805779932942
3.193412856465692,-0.11366805779932942
3.195413741714104,-0.10921633834600586
3.1974146269625163,-0.10470774971213548
3.1994155122109285,-0.1022066431516202
3.2014163974593406,-0.09970553659110515
3.2034172827077527,-0.0972044300305902
3.2054181679561644,-0.09673469059926165
3.2074190532045765,-0.09673469059926165
3.2094199384529887,-0.09673469059926165
3.211420823701401,-0.09459868417786588
3.213421708949813,-0.08959647105683599
3.215422594198225,-0.08459425793580566
3.217423479446637,-0.07959204481477522
3.2194243646950493,-0.07458983169374467
3.2214252499434615,-0.06958761857271412
3.2234261351918736,-0.06458540545168368
3.2254270204402853,-0.06286795619912622
3.2274279056886974,-0.06286795619912622
3.2294287909371096,-0.06286795619912622
3.2314296761855217,-0.06286795619912622
3.233430561433934,-0.06286795619912622
3.235431446682346,-0.06286795619912622
3.237432331930758,-0.06286795619912622
3.23943321717917,-0.06286795619912622
3.2414341024275823,-0.06286795619912622
3.2434349876759945,-0.06286795619912622
3.245435872924406,-0.06286795619912622
3.2474367581728183,-0.06286795619912622
3.2494376434212304,-0.06286795619912622
3.2514385286696426,-0.06286795619912622
3.2534394139180547,-0.06286795619912622
3.255440299166467,-0.06286795619912622
3.257441184414879,-0.06286795619912622
3.259442069663291,-0.06286795619912622
3.261442954911703,-0.0630590366457705
3.2634438401601154,-0.06806124976680039
3.265444725408527,-0.07306346288782939
3.267445610656939,-0.07806567600885983
3.2694464959053513,-0.08633445486058677
3.2714473811537634,-0.09633888110264777
3.2734482664021756,-0.10634330734470754
3.2754491516505877,-0.11500789569304848
3.277450036899,-0.12001010881407903
3.279450922147412,-0.12213474139936331
3.281451807395824,-0.12213474139936331
3.2834526926442362,-0.12213474139936331
3.285453577892648,-0.12213474139936331
3.28745446314106,-0.12213474139936331
3.289455348389472,-0.12462333674015835
3.2914562336378843,-0.1296255498611889
3.2934571188862964,-0.1306014249993972
3.2954580041347086,-0.1306014249993972
3.2974588893831207,-0.1306014249993972
3.299459774631533,-0.1306014249993972
3.301460659879945,-0.1306014249993972
3.303461545128357,-0.1306014249993972
3.305462430376769,-0.1306014249993972
3.307463315625181,-0.1306014249993972
3.309464200873593,-0.1306014249993972
3.311465086122005,-0.1306014249993972
3.3134659713704173,-0.1306014249993972
3.3154668566188294,-0.1306014249993972
3.3174677418672416,-0.14495975570424113
3.3194686271156537,-0.15600147579949875
3.321469512364066,-0.15600147579949875
3.323470397612478,-0.15600147579949875
3.3254712828608897,-0.15600147579949875
3.327472168109302,-0.15307005910616756
3.329473053357714,-0.14973525035881396
3.331473938606126,-0.14640044161146026
3.333474823854538,-0.14306563286410678
3.3354757091029503,-0.13973082411675353
3.3374765943513625,-0.13639601536939994
3.3394774795997746,-0.13306120662204624
3.3414783648481867,-0.12972639787469264
3.343479250096599,-0.12639158912733917
3.3454801353450105,-0.12305678037998669
3.3474810205934227,-0.12213474139936331
3.349481905841835,-0.12213474139936331
3.351482791090247,-0.12213474139936331
3.353483676338659,-0.12213474139936331
3.355484561587071,-0.12213474139936331
3.3574854468354833,-0.12697999558208217
3.3594863320838955,-0.1344833152636269
3.3614872173323076,-0.1419866349451726
3.3634881025807197,-0.14753479219946486
3.3654889878291314,-0.14753479219946486
3.3674898730775435,-0.14753479219946486
3.3694907583259557,-0.14753479219946486
3.371491643574368,-0.14753479219946486
3.37349252882278,-0.14753479219946486
3.375493414071192,-0.14753479219946486
3.377494299319604,-0.14753479219946486
3.3794951845680163,-0.14753479219946486
3.3814960698164285,-0.14753479219946486
3.3834969550648406,-0.14674658535706342
3.3854978403132523,-0.13924326567551926
3.3874987255616644,-0.13173994599397354
3.3894996108100766,-0.12423662631242782
3.3915004960584887,-0.12213474139936331
3.393501381306901,-0.12213474139936331
3.395502266555313,-0.12213474139936331
3.397503151803725,-0.12213474139936331
3.399504037052137,-0.12213474139936331
3.4015049223005493,-0.13177065535147547
3.4035058075489615,-0.14677729471456702
3.405506692797373,-0.14617773106820875
3.4075075780457853,-0.14474852731934307
3.4095084632941974,-0.14331932357047727
3.4115093485426096,-0.14189011982161137
3.4135102337910217,-0.14046091607274547
3.415511119039434,-0.13903171232387967
3.417512004287846,-0.13760250857501388
3.419512889536258,-0.1361733048261482
3.4215137747846702,-0.1347441010772824
3.4235146600330824,-0.13331489732841661
3.425515545281494,-0.13188569357955104
3.427516430529906,-0.1306014249993972
3.4295173157783183,-0.1306014249993972
3.4315182010267304,-0.1306014249993972
3.4335190862751426,-0.1306014249993972
3.4355199715235547,-0.1306014249993972
3.437520856771967,-0.13057185302551166
3.439521742020379,-0.12932129974525408
3.441522627268791,-0.1280707464649964
3.4435235125172032,-0.12682019318473903
3.445524397765615,-0.12556963990448167
3.447525283014027,-0.12431908662422408
3.449526168262439,-0.1230685333439665
3.4515270535108513,-0.12213474139936331
3.4535279387592634,-0.12213474139936331
3.4555288240076756,-0.12213474139936331
3.4575297092560877,-0.12213474139936331
3.4595305945045,-0.12213474139936331
3.461531479752912,-0.12213474139936331
3.463532365001324,-0.12213474139936331
3.465533250249736,-0.12213474139936331
3.467534135498148,-0.12213474139936331
3.46953502074656,-0.12213474139936331
3.471535905994972,-0.12311289130479619
3.4735367912433843,-0.13311731754685718
3.4755376764917965,-0.13906810859943097
3.4775385617402086,-0.13906810859943097
3.4795394469886207,-0.13906810859943097
3.481540332237033,-0.13906810859943097
3.483541217485445,-0.13906810859943097
3.4855421027338567,-0.13906810859943097
3.487542987982269,-0.13906810859943097
3.489543873230681,-0.13589253355761188
3.491544758479093,-0.1308903204365821
3.493545643727505,-0.1306014249993972
3.4955465289759173,-0.1306014249993972
3.4975474142243295,-0.1306014249993972
3.4995482994727416,-0.12781483515252812
3.5015491847211537,-0.12281262203149823
3.503550069969566,-0.12213474139936331
3.5055509552179775,-0.12213474139936331
3.5075518404663897,-0.12213474139936331
3.509552725714802,-0.11973713674744513
3.511553610963214,-0.11473492362641458
3.513554496211626,-0.10973271050538458
3.515555381460038,-0.10449505897688427
3.5175562667084503,-0.09699173929533844
3.5195571519568625,-0.08948841961379272
3.5215580372052746,-0.08198509993224701
3.5235589224536867,-0.07980132339919399
3.5255598077020984,-0.07980132339919399
3.5275606929505106,-0.07980132339919399
3.5295615781989227,-0.07980132339919399
3.531562463447335,-0.07980132339919399
3.533563348695747,-0.08295870030323793
3.535564233944159,-0.08796091342426837
3.537565119192571,-0.09296312654529826
3.5395660044409833,-0.09796533966632825
3.5415668896893955,-0.10296755278735881
3.5435677749378076,-0.10520137419929554
3.5455686601862193,-0.10520137419929554
3.5475695454346314,-0.1095075085504148
3.5495704306830436,-0.11535138554356028
3.5515713159314557,-0.12535581178562127
3.553572201179868,-0.1306014249993972
3.55557308642828,-0.1306014249993972
3.557573971676692,-0.1306014249993972
3.5595748569251042,-0.1306014249993972
3.5615757421735164,-0.1306014249993972
3.5635766274219285,-0.1365726889569745
3.56557751267034,-0.1515793283200627
3.5675783979187523,-0.15600147579949875
3.5695792831671644,-0.15600147579949875
3.5715801684155766,-0.15600147579949875
3.5735810536639887,-0.15600147579949875
3.575581938912401,-0.15600147579949875
3.577582824160813,-0.14972311826696205
3.579583709409225,-0.13971869202490095
3.5815845946576372,-0.13906810859943097
3.5835854799060494,-0.13906810859943097
3.5855863651544615,-0.13906810859943097
3.587587250402873,-0.13906810859943097
3.5895881356512853,-0.13906810859943097
3.5915890208996974,-0.13906810859943097
3.5935899061481096,-0.13906810859943097
3.5955907913965217,-0.13906810859943097
3.597591676644934,-0.13906810859943097
3.599592561893346,-0.13906810859943097
3.601593447141758,-0.13906810859943097
3.6035943323901702,-0.13906810859943097
3.6055952176385824,-0.13906810859943097
3.607596102886994,-0.13906810859943097
3.609596988135406,-0.13906810859943097
3.6115978733838183,-0.13906810859943097
3.6135987586322305,-0.13906810859943097
3.6155996438806426,-0.13906810859943097
3.6176005291290547,-0.13906810859943097
3.619601414377467,-0.13906810859943097
3.621602299625879,-0.13906810859943097
3.623603184874291,-0.13906810859943097
3.6256040701227032,-0.15304427841099078
3.627604955371115,-0.16446815939953263
3.629605840619527,-0.16446815939953263
3.631606725867939,-0.16446815939953263
3.6336076111163513,-0.16446815939953263
3.6356084963647635,-0.15592868324839526
3.6376093816131756,-0.14753479219946486
3.6396102668615877,-0.14753479219946486
3.64161115211,-0.14753479219946486
3.643612037358412,-0.14753479219946486
3.645612922606824,-0.14753479219946486
3.647613807855236,-0.14420453298655223
3.649614693103648,-0.10418682801830814
3.65161557835206,-0.05635302287549904
3.653616463600472,0.0036735345768671435
3.6556173488488843,0.06370009202922777
3.6576182340972965,0.12380854110157802
3.6596191193457086,0.19884173791703585
3.6616200045941207,0.2691798151864201
3.663620889842533,0.32920637263878627
3.665621775090945,0.29304667287888597
3.6676226603393567,0.19800462357932724
3.669623545587769,0.20969465233286455
3.671624430836181,0.24028799670064338
3.673625316084593,0.3053167672740401
3.675626201333005,0.32963857841093136
3.6776270865814173,0.3196341521688705
3.6796279718298295,0.23522777701542197
3.6816288570782416,0.13768462115533764
3.6836297423266537,0.04014146529524265
3.685630627575066,-0.030666351405458148
3.6876315128234776,-0.07068405637369346
3.6896323980718897,-0.10683920659909463
3.691633283320302,-0.13946619286327055
3.693634168568714,-0.14446840598430044
3.695635053817126,-0.14753479219946486
3.6976359390655382,-0.14753479219946486
3.6996368243139504,-0.15100836174735766
3.7016377095623625,-0.15600147579949875
3.7036385948107746,-0.15600147579949875
3.7056394800591868,-0.15600147579949875
3.7076403653075984,-0.15600147579949875
3.7096412505560106,-0.15600147579949875
3.7116421358044227,-0.15600147579949875
3.713643021052835,-0.15600147579949875
3.715643906301247,-0.15600147579949875
3.717644791549659,-0.15600147579949875
3.7196456767980712,-0.15600147579949875
3.7216465620464834,-0.15600147579949875
3.7236474472948955,0.0387322470013568
3.7256483325433076,0.26883405056875576
3.7276492177917193,0.4989358541360783
3.7296501030401314,0.7290376577034657
3.7316509882885436,0.9591394612708694
3.7336518735369557,1.189241264838273
3.735652758785368,1.4193430684056767
3.73765364403378,1.6494448719730803
3.739654529282192,1.7932533809763815
3.7416554145306042,1.798255594097411
3.7436562997790164,1.7963470643982071
3.7456571850274285,1.7913448512771764
3.74765807027584,1.7763564100518607
3.7496589555242523,1.7613497706887697
3.7516598407726645,1.74634313132568
3.7536607260210766,1.7282701057474235
3.7556616112694887,1.7082612532633012
3.757662496517901,1.7020647873507588
3.759663381766313,1.697062574229728
3.761664267014725,1.6920603611086977
3.7636651522631372,1.6790259449270177
3.7656660375115494,1.6590170924428982
3.767666922759961,1.6558688146077487
3.769667808008373,1.6566194877909872
3.7716686932567853,1.6616217009120176
3.7736695785051975,1.6666239140330483
3.7756704637536096,1.6716261271540787
3.7776713490020217,1.6842806572096936
3.779672234250434,1.6996489845610716
3.781673119498846,1.7196578370451938
3.783674004747258,1.5231315976733404
3.7856748899956703,0.972888154359984
3.787675775244082,0.4226447110467989
3.789676660492494,-0.12759873226648566
3.791677545740906,-0.1306014249993972
3.7936784309893183,-0.1306014249993972
3.7956793162377305,-0.1306014249993972
3.7976802014861426,-0.1306014249993972
3.7996810867345547,-0.1306014249993972
3.801681971982967,-0.1306014249993972
3.803682857231379,-0.12947996475898305
3.805683742479791,-0.1244777516379525
3.807684627728203,-0.11947553851692305
3.809685512976615,-0.1144733253958925
3.811686398225027,-0.10527416675039569
3.813687283473439,-0.09600221555379873
3.8156881687218513,-0.09100000243276818
3.8176890539702635,-0.0837275716242476
3.8196899392186756,-0.0737231453821866
3.8216908244670877,-0.0713346397991601
3.8236917097155,-0.0713346397991601
3.825692594963912,-0.0713346397991601
3.8276934802123237,-0.0713346397991601
3.829694365460736,-0.0713346397991601
3.831695250709148,0.6569070638634048
3.83369613595756,1.7223784586429045
3.8356970212059722,1.7320689670080536
3.8376979064543844,1.7320689670080536
3.8396987917027965,1.7320689670080536
3.8416996769512086,1.7320689670080536
3.8437005621996208,1.7320689670080536
3.845701447448033,1.704662571518195
3.8477023326964446,1.45289361016169
3.8497032179448567,0.41743549410850933
3.851704103193269,-0.0713346397991601
3.853704988441681,-0.0713346397991601
3.855705873690093,-0.0713346397991601
3.8577067589385052,-0.0713346397991601
3.8597076441869174,-0.0713346397991601
3.8617085294353295,-0.0713346397991601
3.8637094146837416,-0.0713346397991601
3.8657102999321538,-0.07512440199090176
3.8677111851805654,-0.07980132339919399
3.8697120704289776,-0.07980132339919399
3.8717129556773897,-0.08166435775395808
3.873713840925802,-0.08666657087498797
3.875714726174214,-0.09166878399601819
3.877715611422626,-0.09667099711704874
3.8797164966710382,-0.09673469059926165
3.8817173819194504,-0.09820873975907574
3.8837182671678625,-0.10321095288010562
3.8857191524162746,-0.10821316600113584
3.8877200376646863,-0.11321537912216528
3.8897209229130985,-0.11366805779932942
3.8917218081615106,-0.11366805779932942
3.8937226934099227,-0.11366805779932942
3.895723578658335,-0.11366805779932942
3.897724463906747,-0.11366805779932942
3.899725349155159,-0.11366805779932942
3.9017262344035712,-0.11366805779932942
3.9037271196519834,-0.11366805779932942
3.9057280049003955,-0.11366805779932942
3.907728890148807,-0.11366805779932942
3.9097297753972193,-0.12498274996122438
3.9117306606456315,-0.1389972408513629
3.9137315458940436,-0.13784288397727895
3.9157324311424557,-0.136688527103195
3.917733316390868,-0.13553417022911096
3.91973420163928,-0.13437981335502713
3.921735086887692,-0.1332254564809433
3.9237359721361043,-0.13207109960685948
3.9257368573845164,-0.13091674273277554
3.927737742632928,-0.1297623858586917
3.92973862788134,-0.12860802898460788
3.9317395131297523,-0.12745367211052405
3.9337403983781645,-0.1262993152364401
3.9357412836265766,-0.12514495836235617
3.9377421688749887,-0.12399060148827223
3.939743054123401,-0.1228362446141883
3.941743939371813,-0.12168188774010424
3.943744824620225,-0.12052753086602042
3.9457457098686373,-0.11937317399193659
3.947746595117049,-0.11821881711785287
3.949747480365461,-0.11706446024376893
3.951748365613873,-0.11591010336968488
3.9537492508622853,-0.11475574649560094
3.9557501361106975,-0.11366805779932942
3.9577510213591096,-0.11366805779932942
3.9597519066075217,-0.11366805779932942
3.961752791855934,-0.11366805779932942
3.963753677104346,-0.11366805779932942
3.965754562352758,-0.11366805779932942
3.96775544760117,-0.11366805779932942
3.969756332849582,-0.11398753621805435
3.971757218097994,-0.11509913913383885
3.9737581033464062,-0.11621074204962345
3.9757589885948184,-0.11732234496540794
3.9777598738432305,-0.11843394788119255
3.9797607590916426,-0.11954555079697704
3.9817616443400548,-0.12065715371276142
3.983762529588467,-0.12176875662854592
3.985763414836879,-0.12288035954433052
3.9877643000852907,-0.12399196246011479
3.989765185333703,-0.12510356537589928
3.991766070582115,-0.12621516829168378
3.993766955830527,-0.12732677120746827
3.9957678410789392,-0.12843837412325276
3.9977687263273514,-0.12954997703903737
3.9997696115757635,-0.13066157995482197
4.001770496824175,-0.13177318287060635
4.003771382072587,-0.13288478578639074
4.0057722673209994,-0.13399638870217512
4.007773152569412,-0.1351079916179596
4.009774037817824,-0.1362195945337441
4.011774923066236,-0.1373311974495287
4.013775808314648,-0.1384428003653133
4.01577669356306,-0.1395544032810978
4.017777578811472,-0.1406660061968823
4.019778464059884,-0.141777609112667
4.0217793493082965,-0.1428892120284514
4.023780234556709,-0.1440008149442359
4.025781119805121,-0.14511241786002027
4.027782005053533,-0.14622402077580487
4.029782890301945,-0.14733562369158948
4.031783775550357,-0.14753479219946486
4.033784660798769,-0.14817627655605192
4.035785546047181,-0.1531784896770818
4.037786431295593,-0.15273263530158177
4.039787316544005,-0.14522931562003505
4.041788201792417,-0.13772599593848978
4.043789087040829,-0.1306014249993972
4.045789972289241,-0.1306014249993972
4.047790857537653,-0.1306014249993972
4.0497917427860655,-0.1306014249993972
4.051792628034478,-0.1315998203331038
4.05379351328289,-0.13310048426941268
4.055794398531302,-0.134601148205722
4.057795283779714,-0.13610181214203132
4.059796169028126,-0.1376024760783403
4.061797054276538,-0.1391031400146493
4.06379793952495,-0.14060380395095817
4.0657988247733625,-0.1421044678872675
4.067799710021775,-0.14360513182357681
4.069800595270187,-0.1451057957598857
4.071801480518599,-0.14660645969619457
4.073802365767011,-0.14810712363250356
4.075803251015423,-0.14960778756881288
4.077804136263834,-0.15110845150512164
4.0798050215122466,-0.15260911544143052
4.081805906760659,-0.1541097793777394
4.083806792009071,-0.15561044331404839
4.085807677257483,-0.15600147579949875
4.087808562505895,-0.15600147579949875
4.089809447754307,-0.15600147579949875
4.091810333002719,-0.15600147579949875
4.0938112182511315,-0.15600147579949875
4.095812103499544,-0.14607211687576005
4.097812988747956,-0.13106547751266662
4.099813873996368,-0.1306014249993972
4.10181475924478,-0.1306014249993972
4.103815644493192,-0.1306014249993972
4.105816529741604,-0.1306014249993972
4.107817414990016,-0.1306014249993972
4.1098183002384285,-0.1261428812444072
4.111819185486841,-0.12114066812337698
4.113820070735253,-0.11613845500234588
4.115820955983665,-0.11113624188131532
4.117821841232077,-0.10613402876028544
4.119822726480488,-0.09706225707922012
4.1218236117289,-0.08826800699922777
4.123824496977313,-0.08826800699922777
4.125825382225725,-0.086125176276166
4.127826267474137,-0.08112296315513623
4.129827152722549,-0.07980132339919399
4.131828037970961,-0.08001742628527764
4.133828923219373,-0.08501963940630874
4.135829808467785,-0.08826800699922777
4.1378306937161975,-0.08826800699922777
4.13983157896461,-0.0915595951693653
4.141832464213022,-0.09656180829039518
4.143833349461434,-0.10639335222359103
4.145834234709846,-0.11503291813249106
4.147835119958258,-0.12003513125352094
4.14983600520667,-0.1250373443745515
4.151836890455082,-0.1300395574955827
4.1538377757034946,-0.1306014249993972
4.155838660951907,-0.1306014249993972
4.157839546200319,-0.1306014249993972
4.15984043144873,-0.13311504277963304
4.161841316697142,-0.13811725590066415
4.163842201945554,-0.13906810859943097
4.1658430871939665,-0.13906810859943097
4.167843972442379,-0.13906810859943097
4.169844857690791,-0.13906810859943097
4.171845742939203,-0.13906810859943097
4.173846628187615,-0.1392608651903422
4.175847513436027,-0.13952413956513332
4.177848398684439,-0.13978741393992433
4.179849283932851,-0.14005068831471545
4.1818501691812635,-0.14031396268950658
4.183851054429676,-0.1405772370642976
4.185851939678088,-0.1408405114390886
4.1878528249265,-0.1411037858138796
4.189853710174912,-0.14136706018867062
4.191854595423324,-0.14163033456346186
4.193855480671736,-0.14189360893825287
4.195856365920148,-0.142156883313044
4.197857251168561,-0.1424201576878351
4.199858136416972,-0.14268343206262601
4.201859021665384,-0.14294670643741703
4.203859906913796,-0.14320998081220815
4.205860792162208,-0.14347325518699916
4.20786167741062,-0.14373652956179028
4.2098625626590325,-0.1439998039365814
4.211863447907445,-0.14426307831137253
4.213864333155857,-0.14452635268616354
4.215865218404269,-0.14478962706095455
4.217866103652681,-0.14505290143574567
4.219866988901093,-0.1453161758105368
4.221867874149505,-0.1455794501853277
4.223868759397917,-0.1458427245601187
4.2258696446463295,-0.14610599893490983
4.227870529894742,-0.14636927330970095
4.229871415143154,-0.14663254768449208
4.231872300391566,-0.1468958220592831
4.233873185639978,-0.1471590964340742
4.23587407088839,-0.14742237080886533
4.237874956136802,-0.14753479219946486
4.239875841385214,-0.14753479219946486
4.241876726633626,-0.14753479219946486
4.243877611882038,-0.14753479219946486
4.24587849713045,-0.14753479219946486
4.247879382378862,-0.14753479219946486
4.249880267627274,-0.14753479219946486
4.251881152875686,-0.14753479219946486
4.2538820381240985,-0.13982788085155018
4.255882923372511,-0.0697968971571139
4.257883808620923,-0.0018541497724212652
4.259884693869335,0.06317462080096692
4.261885579117747,0.10010205449819976
4.263886464366159,0.12636367338360677
4.265887349614571,0.15262529226902044
4.267888234862983,0.17888691115443167
4.2698891201113955,0.20514853003983868
4.271890005359808,0.23141014892524547
4.27389089060822,0.25767176781065226
4.275891775856632,0.3161628573882286
4.277892661105044,0.35915595788273114
4.279893546353455,0.35415374476170347
4.2818944316018674,0.31497542889834895
4.28389531685028,0.24994665832494378
4.285896202098692,0.11913161969323871
4.287897087347104,-0.0052685753725753015
4.289897972595516,-0.060292919703903824
4.291898857843928,-0.09564507709995818
4.29389974309234,-0.11065171646305172
4.295900628340752,-0.11366805779932942
4.2979015135891645,-0.11420035332926304
4.299902398837577,-0.11920256645029281
4.301903284085989,-0.1262748177432832
4.303904169334401,-0.13627924398534552
4.305905054582813,-0.14267588941341847
4.307905939831225,-0.14753479219946486
4.309906825079637,-0.14753479219946486
4.311907710328049,-0.14753479219946486
4.313908595576462,-0.14753479219946486
4.315909480824874,-0.14753479219946486
4.317910366073286,-0.14753479219946486
4.319911251321697,-0.14753479219946486
4.321912136570109,-0.14753479219946486
4.323913021818521,-0.14753479219946486
4.3259139070669335,-0.14753479219946486
4.327914792315346,-0.14753479219946486
4.329915677563758,-0.14698884806620083
4.33191656281217,-0.14636357142607204
4.333917448060582,-0.14573829478594325
4.335918333308994,-0.14511301814581457
4.337919218557406,-0.14448774150568577
4.339920103805818,-0.14386246486555698
4.3419209890542305,-0.14323718822542808
4.343921874302643,-0.1426119115852994
4.345922759551055,-0.1419866349451706
4.347923644799467,-0.14136135830504193
4.349924530047879,-0.14073608166491303
4.351925415296291,-0.14011080502478412
4.353926300544703,-0.13948552838465533
4.355927185793115,-0.13906810859943097
4.357928071041528,-0.13906810859943097
4.359928956289939,-0.1384279891031791
4.361929841538351,-0.13742754647897293
4.363930726786763,-0.13642710385476697
4.365931612035175,-0.1354266612305609
4.367932497283587,-0.13442621860635495
4.3699333825319995,-0.1334257759821489
4.371934267780412,-0.1324253333579426
4.373935153028824,-0.13142489073373664
4.375936038277236,-0.1306014249993972
4.377936923525648,-0.1306014249993972
4.37993780877406,-0.1306014249993972
4.381938694022472,-0.1306014249993972
4.383939579270884,-0.1306014249993972
4.3859404645192965,-0.1306014249993972
4.387941349767709,-0.1306014249993972
4.389942235016121,-0.1306014249993972
4.391943120264533,-0.1306014249993972
4.393944005512945,-0.1306014249993972
4.395944890761357,-0.1304945109399649
4.397945776009769,-0.12549229781893367
4.399946661258181,-0.12049008469790512
4.401947546506593,-0.11548787157687534
4.403948431755005,-0.11366805779932942
4.405949317003417,-0.11366805779932942
4.407950202251829,-0.10422777382830717
4.409951087500241,-0.09547901909275358
4.411951972748653,-0.0904768059717237
4.4139528579970655,-0.08547459285069314
4.415953743245478,-0.08047237972966204
4.41795462849389,-0.07113900981806998
4.419955513742302,-0.06200126988756827
4.421956398990714,-0.05699905676653838
4.423957284239126,-0.05440127259909233
4.425958169487538,-0.05440127259909233
4.42795905473595,-0.05440127259909233
4.4299599399843625,-0.05440127259909233
4.431960825232775,-0.05440127259909233
4.433961710481187,-0.05440127259909233
4.435962595729599,-0.05440127259909233
4.437963480978011,-0.04374171339710686
4.439964366226422,-0.029001221798990784
4.4419652514748345,-0.029001221798990784
4.443966136723247,-0.029001221798990784
4.445967021971659,-0.029001221798990784
4.447967907220071,-0.029001221798990784
4.449968792468483,-0.029001221798990784
4.451969677716895,-0.036054137570593836
4.453970562965307,-0.04355745725213911
4.455971448213719,-0.051060776933685825
4.4579723334621315,-0.05440127259909233
4.459973218710544,-0.05440127259909233
4.461974103958956,-0.05440127259909233
4.463974989207368,-0.05440127259909233
4.46597587445578,-0.05440127259909233
4.467976759704192,-0.05440127259909233
4.469977644952604,-0.05440127259909233
4.471978530201016,-0.05440127259909233
4.473979415449429,-0.05486077557792579
4.475980300697841,-0.059862988698955566
4.477981185946253,-0.0668624474408448
4.479982071194664,-0.07686687368290002
4.481982956443076,-0.07980132339919399
4.483983841691488,-0.07987184118307511
4.4859847269399005,-0.08487405430410488
4.487985612188313,-0.08987626742513477
4.489986497436725,-0.09487848054616466
4.491987382685137,-0.09673469059926165
4.493988267933549,-0.09673469059926165
4.495989153181961,-0.09673469059926165
4.497990038430373,-0.09673469059926165
4.499990923678785,-0.09673469059926165
4.5019918089271975,-0.10500574421821207
4.50399269417561,-0.12001238358130562
4.505993579424022,-0.1235663282377002
4.507994464672434,-0.12523373261137682
4.509995349920846,-0.126901136985054
4.511996235169258,-0.12856854135873086
4.51399712041767,-0.1302359457324075
4.5159980056660824,-0.1306014249993972
4.517998890914495,-0.13082207741992558
4.519999776162906,-0.13332318398044007
4.522000661411318,-0.13582429054095535
4.52400154665973,-0.1383253971014703
4.526002431908142,-0.13906810859943097
4.528003317156554,-0.13902886886485266
4.5300042024049665,-0.13527720902407936
4.532005087653379,-0.13152554918330628
4.534005972901791,-0.12777388934253386
4.536006858150203,-0.12402222950176145
4.538007743398615,-0.12027056966098915
4.540008628647027,-0.11651890982021573
4.542009513895439,-0.11366805779932942
4.544010399143851,-0.11366805779932942
4.5460112843922635,-0.11476358569341272
4.548012169640676,-0.11676447094182463
4.550013054889088,-0.11876535619023709
4.5520139401375,-0.12076624143864945
4.554014825385912,-0.12276712668706147
4.556015710634324,-0.1247680119354736
4.558016595882736,-0.12676889718388595
4.560017481131148,-0.1287697824322972
4.56201836637956,-0.1306014249993972
4.564019251627972,-0.1306014249993972
4.566020136876384,-0.1306014249993972
4.568021022124796,-0.1306014249993972
4.570021907373208,-0.1306014249993972
4.57202279262162,-0.1306014249993972
4.5740236778700325,-0.1306014249993972
4.576024563118445,-0.1306014249993972
4.578025448366857,-0.1306014249993972
4.580026333615269,-0.1306014249993972
4.582027218863681,-0.1306014249993972
4.584028104112093,-0.1306014249993972
4.586028989360505,-0.1306014249993972
4.588029874608917,-0.1306014249993972
4.59003075985733,-0.1306014249993972
4.592031645105742,-0.1306014249993972
4.594032530354154,-0.1306014249993972
4.596033415602566,-0.1306014249993972
4.598034300850978,-0.1306014249993972
4.600035186099389,-0.1306014249993972
4.6020360713478015,-0.1306014249993972
4.604036956596214,-0.1306014249993972
4.606037841844626,-0.1306014249993972
4.608038727093038,-0.1306014249993972
4.61003961234145,-0.1306014249993972
4.612040497589862,-0.1306014249993972
4.614041382838274,-0.1306014249993972
4.616042268086686,-0.1306014249993972
4.6180431533350985,-0.1306014249993972
4.620044038583511,-0.1306014249993972
4.622044923831923,-0.1306014249993972
4.624045809080335,-0.1306014249993972
4.626046694328747,-0.1306014249993972
4.628047579577159,-0.1306014249993972
4.630048464825571,-0.1306014249993972
4.632049350073983,-0.1306014249993972
4.634050235322396,-0.1306014249993972
4.636051120570808,-0.1306014249993972
4.63805200581922,-0.1306014249993972
4.640052891067632,-0.1306014249993972
4.642053776316043,-0.1306014249993972
4.644054661564455,-0.1306014249993972
4.6460555468128675,-0.1306014249993972
4.64805643206128,-0.1306014249993972
4.650057317309692,-0.1306014249993972
4.652058202558104,-0.1306014249993972
4.654059087806516,-0.1306014249993972
4.656059973054928,-0.1306014249993972
4.65806085830334,-0.1306014249993972
4.660061743551752,-0.1306014249993972
4.6620626288001645,-0.1306014249993972
4.664063514048577,-0.1306014249993972
4.666064399296989,-0.1306014249993972
4.668065284545401,-0.1306014249993972
4.670066169793813,-0.1306014249993972
4.672067055042225,-0.1306014249993972
4.674067940290637,-0.1306014249993972
4.6760688255390495,-0.1306014249993972
4.678069710787462,-0.1306014249993972
4.680070596035874,-0.1306014249993972
4.682071481284285,-0.1306014249993972
4.684072366532697,-0.1306014249993972
4.686073251781109,-0.1306014249993972
4.688074137029521,-0.1306014249993972
4.6900750222779335,-0.1306014249993972
4.692075907526346,-0.12895871809841497
4.694076792774758,-0.12681491247511645
4.69607767802317,-0.12467110685181793
4.698078563271582,-0.12252730122851918
4.700079448519994,-0.1203834956052201
4.702080333768406,-0.11823968998192147
4.704081219016818,-0.11609588435862306
4.7060821042652305,-0.11395207873532454
4.708082989513643,-0.11180827311202579
4.710083874762055,-0.10966446748872671
4.712084760010467,-0.10752066186542797
4.714085645258879,-0.10537685624212945
4.716086530507291,-0.10060861917821151
4.718087415755703,-0.09560640605718129
4.7200883010041155,-0.09060419293615019
4.722089186252527,-0.08826800699922777
4.724090071500939,-0.08826800699922777
4.726090956749351,-0.08406423717309497
4.728091841997763,-0.07980132339919399
4.730092727246175,-0.07980132339919399
4.732093612494587,-0.07980132339919399
4.7340944977429995,-0.07980132339919399
4.736095382991412,-0.07980132339919399
4.738096268239824,-0.08015163755137389
4.740097153488236,-0.08515385067240366
4.742098038736648,-0.09015606379343344
4.74409892398506,-0.09515827691446332
4.746099809233472,-0.1001604900354941
4.748100694481884,-0.10516270315652532
4.750101579730297,-0.1101649162775552
4.752102464978709,-0.11516712939858509
4.754103350227121,-0.12016934251961497
4.756104235475533,-0.12213474139936331
4.758105120723945,-0.12213474139936331
4.760106005972357,-0.12213474139936331
4.7621068912207685,-0.12213474139936331
4.764107776469181,-0.12213474139936331
4.766108661717593,-0.12213474139936331
4.768109546966005,-0.12213474139936331
4.770110432214417,-0.12422752724354191
4.772111317462829,-0.12672863380405697
4.774112202711241,-0.12922974036457258
4.776113087959653,-0.1306014249993972
4.7781139732080655,-0.1306014249993972
4.780114858456478,-0.13155057162274897
4.78211574370489,-0.13280112490300644
4.784116628953302,-0.13405167818326424
4.786117514201714,-0.13530223146352194
4.788118399450126,-0.1365527847437793
4.790119284698538,-0.13780333802403677
4.7921201699469504,-0.13905389130429424
4.794121055195363,-0.14030444458455205
4.796121940443775,-0.14155499786480985
4.798122825692187,-0.1428055511450672
4.800123710940599,-0.14405610442532468
4.80212459618901,-0.1453066577055816
4.804125481437422,-0.1465572109858394
4.8061263666858345,-0.14753479219946486
4.808127251934247,-0.14753479219946486
4.810128137182659,-0.14753479219946486
4.812129022431071,-0.14753479219946486
4.814129907679483,-0.14753479219946486
4.816130792927895,-0.14753479219946486
4.818131678176307,-0.14753479219946486
4.820132563424719,-0.1477837528343099
4.8221334486731315,-0.14833955429220225
4.824134333921544,-0.1488953557500945
4.826135219169956,-0.14945115720798674
4.828136104418368,-0.150006958665879
4.83013698966678,-0.15056276012377112
4.832137874915192,-0.15111856158166348
4.834138760163604,-0.15167436303955573
4.8361396454120165,-0.15223016449744797
4.838140530660429,-0.15278596595534022
4.840141415908841,-0.15334176741323247
4.842142301157252,-0.1538975688711245
4.844143186405664,-0.15445337032901685
4.846144071654076,-0.15500917178690898
4.848144956902488,-0.15556497324480123
4.8501458421509005,-0.15600147579949875
4.852146727399313,-0.15600147579949875
4.854147612647725,-0.1272757153209163
4.856148497896137,-0.07225137098958789
4.858149383144549,-0.013077851245453354
4.860150268392961,0.050372230875918356
4.862151153641373,0.13540985393344818
4.864152038889785,0.2071127915359875
4.8661529241381976,0.262137135867316
4.86815380938661,0.3096410997629412
4.870154694635022,0.34756374411972024
4.872155579883434,0.2725305473042724
4.874156465131846,0.22316582382114525
4.876157350380258,0.21816361070011536
4.87815823562867,0.2350742302279788
4.8801591208770825,0.2625864023936503
4.882160006125494,0.2900985745593022
4.884160891373906,0.28222105566973676
4.886161776622318,0.18717900637016938
4.88816266187073,0.08020807775876959
4.890163547119142,-0.034842824024947205
4.892164432367554,-0.06401443887898517
4.8941653176159665,-0.0819123073811493
4.896166202864379,-0.09191673362320896
4.898167088112791,-0.10192115986527006
4.900167973361203,-0.11192558610733239
4.902168858609615,-0.11779903507436107
4.904169743858027,-0.12246799479737713
4.906170629106439,-0.12496910135789274
4.908171514354851,-0.12747020791840802
4.910172399603264,-0.12997131447892296
4.912173284851676,-0.1306014249993972
4.914174170100088,-0.1306014249993972
4.9161750553485,-0.1306014249993972
4.918175940596912,-0.1306014249993972
4.920176825845324,-0.1306014249993972
4.9221777110937355,-0.1306014249993972
4.924178596342148,-0.1306014249993972
4.92617948159056,-0.1306014249993972
4.928180366838972,-0.13167113428551214
4.930181252087384,-0.13542279412628444
4.932182137335796,-0.13917445396705685
4.934183022584208,-0.14292611380782927
4.93618390783262,-0.14667777364860257
4.9381847930810325,-0.15042943348937565
4.940185678329445,-0.15418109333014807
4.942186563577857,-0.15600147579949875
4.944187448826269,-0.15600147579949875
4.946188334074681,-0.14366313838773093
4.948189219323093,-0.1306014249993972
4.950190104571505,-0.1306014249993972
4.9521909898199175,-0.1300549121743273
4.95419187506833,-0.1288043588940695
4.956192760316742,-0.1275538056138119
4.958193645565154,-0.12630325233355444
4.960194530813566,-0.12505269905329697
4.962195416061977,-0.12380214577303994
4.964196301310389,-0.12255159249278225
4.9661971865588015,-0.12102313848357837
4.968198071807214,-0.11935573410990175
4.970198957055626,-0.11768832973622512
4.972199842304038,-0.11602092536254827
4.97420072755245,-0.1143535209888713
4.976201612800862,-0.11366805779932942
4.978202498049274,-0.11366805779932942
4.980203383297686,-0.11366805779932942
4.9822042685460985,-0.11366805779932942
4.984205153794511,-0.11366805779932942
4.986206039042923,-0.11366805779932942
4.988206924291335,-0.11366805779932942
4.990207809539747,-0.11366805779932942
4.992208694788159,-0.11366805779932942
4.994209580036571,-0.11366805779932942
4.9962104652849835,-0.11150020463682497
4.998211350533396,-0.10649799151579509
5.000212235781808,-0.1014957783947642
5.002213121030219,-0.09673469059926165
5.004214006278631,-0.09673469059926165
5.006214891527043,-0.09495582263170943
5.008215776775455,-0.08995360951067966
5.0102166620238675,-0.08495139638964888
5.01221754727228,-0.07994918326861777
5.014218432520692,-0.07980132339919399
5.016219317769104,-0.07841144062659189
5.018220203017516,-0.073409227505562
5.020221088265928,-0.06840701438453145
5.02222197351434,-0.06340480126350023
5.024222858762752,-0.058402588142470235
5.026223744011165,-0.05340037502144035
5.028224629259577,-0.048398161900410464
5.030225514507989,-0.045934588999058446
5.032226399756401,-0.045934588999058446
5.034227285004813,-0.045934588999058446
5.036228170253225,-0.04532267661635658
5.038229055501637,-0.0403204634953267
5.0402299407500495,-0.035318250374296256
5.042230825998461,-0.03031603725326737
5.044231711246873,-0.029001221798990784
5.046232596495285,-0.029001221798990784
5.048233481743697,-0.029001221798990784
5.050234366992109,-0.029001221798990784
5.052235252240521,-0.029001221798990784
5.0542361374889335,-0.029001221798990784
5.056237022737346,-0.029001221798990784
5.058237907985758,-0.029001221798990784
5.06023879323417,-0.02945845001059999
5.062239678482582,-0.031125854384276508
5.064240563730994,-0.032793258757953136
5.066241448979406,-0.034460663131629876
5.0682423342278184,-0.03612806750530684
5.070243219476231,-0.03648520595914706
5.072244104724643,-0.031482992838117285
5.074244989973055,-0.03656254804470083
5.076245875221467,-0.05156918740779037
5.078246760469879,-0.0584594573230226
5.080247645718291,-0.06346167044405371
5.0822485309667025,-0.06846388356508126
5.084249416215115,-0.0734660966861117
5.086250301463527,-0.07846830980714292
5.088251186711939,-0.08347052292817314
5.090252071960351,-0.08826800699922777
5.092252957208763,-0.08826800699922777
5.094253842457175,-0.08826800699922777
5.096254727705587,-0.08826800699922777
5.0982556129539995,-0.08826800699922777
5.100256498202412,-0.08826800699922777
5.102257383450824,-0.09308596397528268
5.104258268699236,-0.09673469059926165
5.106259153947648,-0.09673469059926165
5.10826003919606,-0.09673469059926165
5.110260924444472,-0.09673469059926165
5.1122618096928845,-0.09673469059926165
5.114262694941297,-0.09673469059926165
5.116263580189709,-0.09673469059926165
5.118264465438121,-0.09673469059926165
5.120265350686533,-0.09673469059926165
5.122266235934944,-0.09673469059926165
5.124267121183356,-0.09673469059926165
5.1262680064317685,-0.09673469059926165
5.128268891680181,-0.09673469059926165
5.130269776928593,-0.09673469059926165
5.132270662177005,-0.09673469059926165
5.134271547425417,-0.09673469059926165
5.136272432673829,-0.09673469059926165
5.138273317922241,-0.09673469059926165
5.140274203170653,-0.09673469059926165
5.1422750884190656,-0.09673469059926165
5.144275973667478,-0.09673469059926165
5.14627685891589,-0.09673469059926165
5.148277744164302,-0.09673469059926165
5.150278629412714,-0.09673469059926165
5.152279514661126,-0.09673469059926165
5.154280399909538,-0.09673469059926165
5.1562812851579505,-0.09673469059926165
5.158282170406363,-0.09673469059926165
5.160283055654775,-0.09673469059926165
5.162283940903187,-0.09632068296486951
5.164284826151598,-0.0954869807780313
5.16628571140001,-0.09465327859119299
5.168286596648422,-0.09381957640435479
5.1702874818968345,-0.09298587421751647
5.172288367145247,-0.09215217203067805
5.174289252393659,-0.0913184698438394
5.176290137642071,-0.09048476765700109
5.178291022890483,-0.08965106547016277
5.180291908138895,-0.08881736328332424
5.182292793387307,-0.08877982962416342
5.184293678635719,-0.0902804935604723
5.186294563884132,-0.09178115749678128
5.188295449132544,-0.09328182143309027
5.190296334380956,-0.0947824853693996
5.192297219629368,-0.09628314930570891
5.19429810487778,-0.0977838132420179
5.196298990126192,-0.09928447717832678
5.198299875374604,-0.10078514111463577
5.2003007606230165,-0.10228580505094509
5.202301645871429,-0.1037864689872543
5.20430253111984,-0.10528713292356262
5.206303416368252,-0.10678779685987161
5.208304301616664,-0.1082884607961806
5.210305186865076,-0.1097891247324898
5.212306072113488,-0.11128978866879913
5.2143069573619005,-0.11279045260510812
5.216307842610313,-0.11366805779932942
5.218308727858725,-0.11366805779932942
5.220309613107137,-0.11439097882245985
5.222310498355549,-0.11539142144666614
5.224311383603961,-0.1163918640708721
5.226312268852373,-0.11739230669507805
5.2283131541007855,-0.11839274931928434
5.230314039349198,-0.1193931919434904
5.23231492459761,-0.12039363456769636
5.234315809846022,-0.12139407719190232
5.236316695094434,-0.12213474139936331
5.238317580342846,-0.12213474139936331
5.240318465591258,-0.12230160226558406
5.24231935083967,-0.12259585009623286
5.244320236088082,-0.12289009792688155
5.246321121336494,-0.12318434575753046
5.248322006584906,-0.12347859358817925
5.250322891833318,-0.12377284141882816
5.25232377708173,-0.12406708924947696
5.254324662330142,-0.12436133708012576
5.256325547578554,-0.12465558491077455
5.2583264328269665,-0.12494983274142346
5.260327318075379,-0.12524408057207237
5.262328203323791,-0.12553832840272117
5.264329088572203,-0.12583257623337007
5.266329973820615,-0.12612682406401887
5.268330859069027,-0.12642107189466767
5.270331744317439,-0.12671531972531658
5.2723326295658515,-0.12700956755596549
5.274333514814264,-0.12730381538661428
5.276334400062676,-0.12759806321726308
5.278335285311088,-0.12789231104791188
5.2803361705595,-0.12818655887856067
5.282337055807912,-0.12848080670920958
5.284337941056323,-0.12877505453985827
5.2863388263047355,-0.1290693023705073
5.288339711553148,-0.12936355020115597
5.29034059680156,-0.12965779803180477
5.292341482049972,-0.12995204586245357
5.294342367298384,-0.13024629369310248
5.296343252546796,-0.13054054152375139
5.298344137795208,-0.1306014249993972
5.30034502304362,-0.1306014249993972
5.302345908292033,-0.1306014249993972
5.304346793540445,-0.12958119190035977
5.306347678788857,-0.12708008533984416
5.308348564037269,-0.12457897877932911
5.310349449285681,-0.12207787221881417
5.312350334534093,-0.11957676565829856
5.314351219782505,-0.11707565909778317
5.3163521050309175,-0.11457455253726823
5.31835299027933,-0.11207344597675328
5.320353875527742,-0.10957233941623834
5.322354760776154,-0.10707123285572284
5.324355646024565,-0.10393887839112148
5.326356531272977,-0.0989366652700916
5.328357416521389,-0.09393445214906171
5.3303583017698015,-0.08893223902803182
5.332359187018214,-0.08393002590700094
5.334360072266626,-0.07892781278597005
5.336360957515038,-0.07392559966494017
5.33836184276345,-0.06892338654391028
5.340362728011862,-0.0639211734228804
5.342363613260274,-0.06286795619912622
5.3443644985086864,-0.06286795619912622
5.346365383757099,-0.06286795619912622
5.348366269005511,-0.06286795619912622
5.350367154253923,-0.06286795619912622
5.352368039502335,-0.0664279669014527
5.354368924750747,-0.07143018002248391
5.356369809999159,-0.0764323931435138
5.358370695247571,-0.07980132339919399
5.3603715804959835,-0.07980132339919399
5.362372465744396,-0.08297234890657168
5.364373350992807,-0.08797456202759923
5.366374236241219,-0.09297677514862912
5.368375121489631,-0.09673469059926165
5.370376006738043,-0.09673469059926165
5.372376891986455,-0.09951673091168711
5.3743777772348675,-0.104518944032717
5.37637866248328,-0.10952115715374677
5.378379547731692,-0.11366805779932942
5.380380432980104,-0.11366805779932942
5.382381318228516,-0.11366805779932942
5.384382203476928,-0.11366805779932942
5.38638308872534,-0.11956425443858121
5.3883839739737525,-0.12706757412012615
5.390384859222165,-0.13457089380167286
5.392385744470577,-0.13906810859943097
5.394386629718989,-0.13906810859943097
5.396387514967401,-0.12844267090577766
5.398388400215813,-0.11366805779932942
5.400389285464225,-0.11366805779932942
5.402390170712637,-0.11366805779932942
5.404391055961049,-0.11366805779932942
5.406391941209461,-0.11366805779932942
5.408392826457873,-0.11366805779932942
5.410393711706285,0.9276384847818365
5.412394596954697,1.7708400995386806
5.414395482203109,1.7908489520227997
5.416396367451521,1.7832193827604277
5.4183972526999336,1.7532061040342408
5.420398137948346,1.7360975797580909
5.422399023196758,1.7210909403950012
5.42439990844517,1.7060843010319116
5.426400793693582,1.6910776616688201
5.428401678941994,1.6760710223057265
5.430402564190406,1.664976982564363
5.4324034494388185,1.6558688146077487
5.434404334687231,1.6558688146077487
5.436405219935643,1.657854686392498
5.438406105184055,1.6628568995135287
5.440406990432467,1.667859112634559
5.442407875680879,1.6729796136511341
5.44440876092929,1.6879862530142211
5.4464096461777025,1.7013960057875148
5.448410531426115,1.7114004320295746
5.450411416674527,1.7245394875034585
5.452412301922939,1.7395461268665482
5.454413187171351,1.74988039435579
5.456414072419763,1.763508524782397
5.458414957668175,1.788519590387546
5.460415842916587,1.7998024358083242
5.462416728165,1.7998024358083242
5.464417613413412,1.3157797410924874
5.466418498661824,0.7505296584159894
5.468419383910236,0.1852795757396154
5.470420269158648,-0.0901014693800879
5.47242115440706,-0.04007933816978937
5.474422039655472,0.01383719452447052
5.4764229249038845,0.07101119388055321
5.478423810152297,0.15104660381703094
5.480424695400709,0.2310820137535089
5.482425580649121,0.3111174236899864
5.484426465897532,0.34908783815846
5.486427351145944,0.368932907402601
5.488428236394356,0.368932907402601
5.4904291216427685,0.6246804366301942
5.492430006891181,1.4350389622372437
5.494430892139593,1.7405356506080873
5.496431777388005,1.7405356506080873
5.498432662636417,1.7405356506080873
5.500433547884829,1.7405356506080873
5.502434433133241,1.7405356506080873
5.5044353183816535,1.165044565898039
5.506436203630066,0.10957759736073902
5.508437088878478,-0.06726053170468649
5.51043797412689,-0.08906872506134955
5.512438859375302,-0.09407093818238077
5.514439744623714,-0.10141161200756099
5.516440629872126,-0.11141603824962076
5.518441515120538,-0.11366805779932942
5.5204424003689505,-0.11407979066650109
5.522443285617363,-0.1190820037875322
5.524444170865774,-0.12213474139936331
5.526445056114186,-0.12213474139936331
5.528445941362598,-0.12213474139936331
5.53044682661101,-0.12213474139936331
5.532447711859422,-0.12213474139936331
5.5344485971078345,-0.12213474139936331
5.536449482356247,-0.12213474139936331
5.538450367604659,-0.12213474139936331
5.540451252853071,-0.12213474139936331
5.542452138101483,-0.12213474139936331
5.544453023349895,-0.1256492567572549
5.546453908598307,-0.14065589612034446
5.5484547938467195,-0.14753479219946486
5.550455679095132,-0.14753479219946486
5.552456564343544,-0.14753479219946486
5.554457449591956,-0.1451872324264235
5.556458334840368,-0.13018059306333396
5.55845922008878,-0.12213474139936331
5.560460105337192,-0.12213474139936331
5.562460990585604,-0.12084873966322962
5.564461875834016,-0.11918133528955377
5.566462761082428,-0.11751393091587703
5.56846364633084,-0.11584652654220029
5.570464531579252,-0.11417912216852322
5.572465416827664,-0.11332115579798452
5.574466302076076,-0.1128209344858816
5.576467187324488,-0.11232071317377856
5.578468072572901,-0.11182049186167553
5.580468957821313,-0.11132027054957239
5.582469843069725,-0.11082004923746935
5.584470728318137,-0.11031982792536632
5.586471613566549,-0.10981960661326318
5.588472498814961,-0.10931938530116014
5.590473384063373,-0.10881916398905722
5.5924742693117855,-0.1083189426769543
5.594475154560198,-0.10781872136485127
5.59647603980861,-0.10731850005274823
5.598476925057022,-0.10681827874064509
5.600477810305434,-0.10631805742854206
5.602478695553846,-0.10581783611643902
5.604479580802257,-0.10531761480433632
5.6064804660506695,-0.10520137419929554
5.608481351299082,-0.10482603760767517
5.610482236547494,-0.09982382448664529
5.612483121795906,-0.09482161136561551
5.614484007044318,-0.08981939824458562
5.61648489229273,-0.08826800699922777
5.618485777541142,-0.08826800699922777
5.620486662789554,-0.08327944248152774
5.622487548037967,-0.07827722936049752
5.624488433286379,-0.0732750162394663
5.626489318534791,-0.06827280311843598
5.628490203783203,-0.06327058999740609
5.630491089031615,-0.05366879755362619
5.632491974280027,-0.045934588999058446
5.634492859528439,-0.045934588999058446
5.6364937447768515,-0.045934588999058446
5.638494630025264,-0.045934588999058446
5.640495515273676,-0.045934588999058446
5.642496400522088,-0.04518846535026233
5.6444972857705,-0.04018625222923111
5.646498171018911,-0.030616306526559223
5.648499056267323,-0.015609667163469676
5.6504999415157355,-0.012067854598923011
5.652500826764148,-0.012067854598923011
5.65450171201256,-0.012067854598923011
5.656502597260972,-0.012067854598923011
5.658503482509384,-0.012067854598923011
5.660504367757796,-0.012067854598923011
5.662505253006208,-0.012067854598923011
5.6645061382546205,-0.012067854598923011
5.666507023503033,-0.015079646400766311
5.668507908751445,-0.025084072642825972
5.670508793999857,-0.029001221798990784
5.672509679248269,-0.029001221798990784
5.674510564496681,-0.029001221798990784
5.676511449745093,-0.029001221798990784
5.678512334993505,-0.029001221798990784
5.6805132202419175,-0.029001221798990784
5.68251410549033,-0.029001221798990784
5.684514990738742,-0.033193617789016194
5.686515875987153,-0.03819583091004375
5.688516761235565,-0.043198044031073635
5.690517646483977,-0.048200257152104076
5.692518531732389,-0.053202470273135294
5.6945194169808016,-0.05820468339416551
5.696520302229214,-0.0632068965151954
5.698521187477626,-0.06820910963622528
5.700522072726038,-0.07321132275725561
5.70252295797445,-0.07821353587828683
5.704523843222862,-0.07980132339919399
5.706524728471274,-0.07980132339919399
5.7085256137196865,-0.07980132339919399
5.710526498968099,-0.07980132339919399
5.712527384216511,-0.07980132339919399
5.714528269464923,-0.07980132339919399
5.716529154713335,-0.07980132339919399
5.718530039961747,-0.08436450644639393
5.720530925210159,-0.08826800699922777
5.722531810458571,-0.08826800699922777
5.7245326957069835,-0.08826800699922777
5.726533580955395,-0.08826800699922777
5.728534466203807,-0.09139865538841352
5.730535351452219,-0.09515031522918682
5.732536236700631,-0.09890197506995924
5.734537121949043,-0.10265363491073154
5.736538007197455,-0.10640529475150395
5.738538892445868,-0.11015695459227703
5.74053977769428,-0.11366805779932942
5.742540662942692,-0.11366805779932942
5.744541548191104,-0.11366805779932942
5.746542433439516,-0.11366805779932942
5.748543318687928,-0.11366805779932942
5.75054420393634,-0.11366805779932942
5.7525450891847525,-0.11366805779932942
5.754545974433165,-0.10925955892321815
5.756546859681577,-0.09425291956012849
5.758547744929989,-0.08726559291009539
5.760548630178401,-0.08559818853641843
5.762549515426813,-0.08393078416274169
5.764550400675225,-0.08226337978906495
5.7665512859236365,-0.08059597541538877
5.768552171172049,-0.07980132339919399
5.770553056420461,-0.07980132339919399
5.772553941668873,-0.07564532368472188
5.774554826917285,-0.0713346397991601
5.776555712165697,-0.0713346397991601
5.778556597414109,-0.0713346397991601
5.7805574826625215,-0.0713346397991601
5.782558367910934,-0.0713346397991601
5.784559253159346,-0.0713346397991601
5.786560138407758,-0.0713346397991601
5.78856102365617,-0.0713346397991601
5.790561908904582,-0.0713346397991601
5.792562794152994,-0.08146872777287573
5.794563679401406,-0.09647536713596527
5.7965645646498185,-0.09673469059926165
5.798565449898231,-0.09600903985546372
5.800566335146643,-0.09350793329494878
5.802567220395055,-0.0910068267344335
5.804568105643467,-0.08850572017391778
5.806568990891878,-0.08600461361340395
5.80856987614029,-0.08350350705288911
5.8105707613887025,-0.08100240049237417
5.812571646637115,-0.08060134153293863
5.814572531885527,-0.08214048403171748
5.816573417133939,-0.08367962653049588
5.818574302382351,-0.08521876902927428
5.820575187630763,-0.08675791152805268
5.822576072879175,-0.0882970540268313
5.8245769581275875,-0.08983619652561015
5.826577843376,-0.09137533902438866
5.828578728624412,-0.09291448152316706
5.830579613872824,-0.09445362402194546
5.832580499121236,-0.09599276652072408
5.834581384369648,-0.09753190901950293
5.83658226961806,-0.09907105151828155
5.838583154866472,-0.10061019401705995
5.8405840401148845,-0.10214933651583835
5.842584925363297,-0.10368847901461686
5.844585810611709,-0.10522762151339571
5.84658669586012,-0.10676676401217355
5.848587581108532,-0.10830590651095195
5.850588466356944,-0.1098450490097308
5.852589351605356,-0.11138419150850953
5.854590236853769,-0.11292333400728793
5.856591122102181,-0.11366805779932942
5.858592007350593,-0.11366805779932942
5.860592892599005,-0.11366805779932942
5.862593777847417,-0.11366805779932942
5.864594663095829,-0.11366805779932942
5.866595548344241,-0.11366805779932942
5.8685964335926535,-0.11366805779932942
5.870597318841066,-0.11366805779932942
5.872598204089478,-0.11366805779932942
5.87459908933789,-0.11366805779932942
5.876599974586302,-0.11411903040107818
5.878600859834714,-0.11536958368133554
5.880601745083126,-0.11662013696159323
5.882602630331538,-0.11787069024185104
5.8846035155799505,-0.11912124352210851
5.886604400828362,-0.12037179680236554
5.888605286076774,-0.1216223500826229
5.890606171325186,-0.12213474139936331
5.892607056573598,-0.12213474139936331
5.89460794182201,-0.12213474139936331
5.896608827070422,-0.12213474139936331
5.898609712318835,-0.12213474139936331
5.900610597567247,-0.12213474139936331
5.902611482815659,-0.12213474139936331
5.904612368064071,-0.12213474139936331
5.906613253312483,-0.12213474139936331
5.908614138560895,-0.12213474139936331
5.910615023809307,-0.11343603154268145
5.9126159090577195,-0.09342717905856202
5.914616794306132,-0.08826800699922777
5.916617679554544,-0.08826800699922777
5.918618564802956,-0.08826800699922777
5.920619450051368,-0.08826800699922777
5.92262033529978,-0.08826800699922777
5.924621220548192,-0.08826800699922777
5.9266221057966035,-0.08826800699922777
5.928622991045016,-0.08826800699922777
5.930623876293428,-0.09106142114776394
5.93262476154184,-0.1010658473898236
5.934625646790252,-0.10520137419929554
5.936626532038664,-0.10520137419929554
5.938627417287076,-0.10520137419929554
5.9406283025354885,-0.10620909607861351
5.942629187783901,-0.1112113091996434
5.944630073032313,-0.10603166423529586
5.946630958280725,-0.09102502487220232
5.948631843529137,-0.08826800699922777
5.950632728777549,-0.08703053363049196
5.952633614025961,-0.0770261073884323
5.954634499274373,-0.0713346397991601
5.9566353845227855,-0.0713346397991601
5.958636269771198,-0.0713346397991601
5.96063715501961,-0.0713346397991601
5.962638040268022,-0.0713346397991601
5.964638925516434,-0.0713346397991601
5.966639810764845,-0.0713346397991601
5.968640696013257,-0.0713346397991601
5.9706415812616696,-0.0713346397991601
5.972642466510082,-0.08102059863015076
5.974643351758494,-0.08826800699922777
5.976644237006906,-0.08826800699922777
5.978645122255318,-0.08826800699922777
5.98064600750373,-0.08826800699922777
5.982646892752142,-0.10162998966086723
5.9846477780005545,-0.11366805779932942
5.986648663248967,-0.11366805779932942
5.988649548497379,-0.11366805779932942
5.990650433745791,-0.11366805779932942
5.992651318994203,-0.11366805779932942
5.994652204242615,-0.1142685963459229
5.996653089491027,-0.11927080946695268
5.998653974739439,-0.1253421631822922
6.0006548599878515,-0.13284548286383702
6.002655745236264,-0.14034880254538318
6.004656630484676,-0.14753479219946486
6.006657515733087,-0.14753479219946486
6.008658400981499,-0.14753479219946486
6.010659286229911,-0.14753479219946486
6.012660171478323,-0.14753479219946486
6.014661056726736,-0.14753479219946486
6.016661941975148,-0.14753479219946486
6.01866282722356,-0.14753479219946486
6.020663712471972,-0.14753479219946486
6.022664597720384,-0.14753479219946486
6.024665482968796,-0.14753479219946486
6.026666368217208,-0.14088109807530869
6.0286672534656205,-0.13337777839376352
6.030668138714033,-0.1258744587122168
6.032669023962445,-0.12213474139936331
6.034669909210857,-0.12213474139936331
6.036670794459269,-0.12213474139936331
6.038671679707681,-0.12213474139936331
6.040672564956093,-0.12213474139936331
6.042673450204505,-0.12213474139936331
6.0446743354529175,-0.12213474139936331
6.046675220701329,-0.13676604417083693
6.048676105949741,-0.15600147579949875
6.050676991198153,-0.15600147579949875
6.052677876446565,-0.15600147579949875
6.054678761694977,-0.15600147579949875
6.0566796469433895,-0.15600147579949875
6.058680532191802,-0.15600147579949875
6.060681417440214,-0.15600147579949875
6.062682302688626,-0.15600147579949875
6.064683187937038,-0.15600147579949875
6.06668407318545,-0.15600147579949875
6.068684958433862,-0.15600147579949875
6.070685843682274,-0.15600147579949875
6.0726867289306865,-0.15600147579949875
6.074687614179099,-0.15600147579949875
6.076688499427511,-0.15600147579949875
6.078689384675923,-0.15600147579949875
6.080690269924335,-0.15600147579949875
6.082691155172747,-0.14584691492073854
6.084692040421159,-0.05580707874220103
6.0866929256695705,0.025825217784040788
6.088693810917983,0.09585620147847707
6.090694696166395,0.1695268127279942
6.092695581414807,0.24420969539126214
6.094696466663219,0.3092384659646502
6.096697351911631,0.35542533963876577
6.098698237160043,0.365429765880828
6.1006991224084555,0.368932907402601
6.102700007656868,0.368932907402601
6.10470089290528,0.36414452240043127
6.106701778153692,0.35914230927940116
6.108702663402104,0.35414009615836994
6.110703548650516,0.3147979970550142
6.112704433898928,0.24976922648162614
6.11470531914734,0.12314885860716307
6.1167062043957525,0.003982902919019926
6.118707089644165,-0.04603922829129181
6.120707974892577,-0.0762799837396475
6.122708860140989,-0.08628440998170717
6.124709745389401,-0.10029925083603952
6.126710630637812,-0.11475994606586049
6.128711515886224,-0.12476437230792026
6.130712401134637,-0.1306014249993972
6.132713286383049,-0.1306014249993972
6.134714171631461,-0.1306014249993972
6.136715056879873,-0.1306014249993972
6.138715942128285,-0.1306014249993972
6.140716827376697,-0.1306014249993972
6.142717712625109,-0.1306014249993972
