Time_Seconds,Voltage_mV
0.0,0.28931103394905455
0.002000918203292494,0.28931103394905455
0.004001836406584988,0.28931103394905455
0.006002754609877482,0.28931103394905455
0.008003672813169976,0.29853847844762615
0.01000459101646247,0.3135453649723199
0.012005509219754964,0.2587697024765657
0.014006427423047457,0.198116869439262
0.01600734562633995,0.13746403640195826
0.018008263829632446,0.07681120336465452
0.02000918203292494,0.01615837032735079
0.022010100236217432,-0.04449446270995283
0.024011018439509927,-0.10010725479444404
0.026011936642802422,-0.1276198800897158
0.028012854846094913,-0.06356888417216167
0.030013773049387408,0.1081765949437774
0.0320146912526799,0.10727616614694391
0.034015609455972394,0.05391834739247747
0.03601652765926489,0.0005605286380108154
0.038017445862557384,-0.022872467572127797
0.04001836406584988,0.0021390099690284936
0.04201928226914237,0.027150487510184562
0.044020200472434864,0.05216196505134074
0.04602111867572736,0.07717344259249692
0.048022036879019854,0.10218492013365299
0.050022955082312345,0.12719639767480917
0.052023873285604844,0.15220787521596535
0.054024791488897335,0.17721935275712153
0.056025709692189826,0.15970546647140027
0.058026627895482324,0.13844571056141752
0.060027546098774816,0.11718595465143478
0.062028464302067314,0.11580923751427774
0.0640293825053598,0.1317887926100163
0.0660303007086523,0.14776834770575498
0.06803121891194479,0.16374790280149365
0.07003213711523729,0.17972745789723232
0.07203305531852978,0.195707012992971
0.07403397352182227,0.21168656808870956
0.07603489172511477,0.22766612318444834
0.07803580992840727,0.24364567828018702
0.08003672813169976,0.2596252333759258
0.08203764633499225,0.27560478847166436
0.08403856453828475,0.29158434356740315
0.08603948274157724,0.3075638986631418
0.08804040094486973,0.3235434537588804
0.09004131914816223,0.33952300885461906
0.09204223735145473,0.31502356324162895
0.09404315555474721,0.1964718204920327
0.09604407375803971,0.07792007774243548
0.0980449919613322,-0.040631665007161866
0.10004591016462469,0.18074856827868335
0.10204682836791719,0.3810691647249499
0.10404774657120969,0.39929181264779223
0.10604866477450217,0.4078446043495286
0.10804958297779467,0.4078446043495286
0.11005050118108717,0.32679196781793496
0.11205141938437965,0.23639016504400456
0.11405233758767215,0.18303234628953802
0.11605325579096465,0.15105529994696176
0.11805417399425715,0.1448986285522157
0.12005509219754963,0.17821862045018133
0.12205601040084213,0.2171667124724409
0.12405692860413463,0.16255831984091673
0.12605784680742713,0.12844404554841105
0.1280587650107196,0.12844404554841105
0.1300596832140121,0.08973809156598733
0.1320606014173046,0.03304540913936638
0.1340615196205971,0.14475944081859005
0.13606243782388958,0.2075272866872767
0.1380633560271821,0.15083460426065576
0.14006427423047457,0.12693071656101218
0.14206519243376706,0.1244295688068966
0.14406611063705957,0.19724375000801786
0.14606702884035205,0.2431749818575787
0.14806794704364454,0.16814054923411026
0.15006886524693705,0.1419106838539116
0.15206978345022953,0.15941871813272068
0.15407070165352202,0.2012867065165026
0.15607161985681453,0.2413331602155292
0.15807253806010702,0.2413331602155292
0.16007345626339953,0.2175258306299297
0.162074374466692,0.1645848698344825
0.1640752926699845,0.09775670650347168
0.166076210873277,0.03129253800237697
0.1680771290765695,0.034627401674531155
0.17007804727986198,0.043855236306896916
0.1720789654831545,0.06303070242178344
0.17407988368644697,0.055581877890613196
0.17608080188973946,0.0355726958576883
0.17808172009303197,0.032842149432629086
0.18008263829632445,0.0303410016785135
0.18208355649961694,0.027839853924397917
0.18408447470290945,0.03988835588826545
0.18608539290620194,0.06156496975726733
0.18808631110949442,0.0650488645387759
0.19008722931278693,0.06129733797449932
0.19208814751607942,0.037953292269420236
0.1940890657193719,0.024877568025630126
0.1960899839226644,0.021125846394456804
0.1980909021259569,-0.006890246562129554
0.20009182032924938,-0.018062370330117816
0.2020927385325419,0.1055727961037155
0.20409365673583438,0.0034433190389626667
0.20609457493912686,-0.3786437819868169
0.20809549314241937,-0.4915456563239061
0.21009641134571186,-0.5150239080541629
0.21209732954900434,-0.5150239080541629
0.21409824775229686,-0.5175392070249927
0.21609916595558934,-0.5243605190816716
0.21810008415888182,-0.4010192748496426
0.22010100236217434,-0.21534412822883275
0.22210192056546682,-0.029668981608027
0.2241028387687593,0.08796903871861161
0.22610375697205182,0.03988962120656425
0.2281046751753443,0.07023312459743414
0.2301055933786368,0.15318559290988332
0.2321065115819293,0.16941225162396112
0.23410742978522178,0.16875626781570963
0.2361083479885143,0.1314020833925582
0.23810926619180678,0.14206933520364884
0.24011018439509926,0.19691803418801945
0.24211110259839178,0.1118083564353145
0.24411202080168426,0.014554396325198615
0.24611293900497674,0.024778868462902004
0.24811385720826926,0.032847499838948635
0.25011477541156174,0.038207102169196205
0.25211569361485425,0.12041897779797262
0.2541166118181467,0.2233282760592219
0.2561175300214392,0.247663252684027
0.25811844822473173,0.21323267295926152
0.2601193664280242,0.07677124251745548
0.2621202846313167,0.08244630982030232
0.2641212028346092,0.15721276232725812
0.26612212103790167,0.04635766592919377
0.2681230392411942,-0.03764449355276023
0.2701239574444867,-0.045981652733145695
0.27212487564777915,-0.04935631005230012
0.27412579385107166,-0.04935631005230012
0.2761267120543642,-0.056129422852050914
0.27812763025765663,-0.0641583763350797
0.28012854846094914,-0.07416296735154237
0.28212946666424166,-0.07898970265241867
0.2841303848675341,-0.07898970265241867
0.2861313030708266,0.0014835851949053236
0.28813222127411914,0.09450162519221783
0.2901331394774116,0.15786403496314483
0.2921340576807041,0.1462310254900172
0.2941349758839966,0.03909853002206354
0.2961358940872891,-0.03600952084835418
0.2981368122905816,-0.08871784486236389
0.3001377304938741,0.058349643079636304
0.30213864869716656,0.18391732578812514
0.30413956690045907,0.27162424036577915
0.3061404851037516,0.47031750906986347
0.30814140330704404,0.7237671481535757
0.31014232151033655,0.7246909849780561
0.31214323971362906,0.7211118975507818
0.3141441579169215,0.7211118975507818
0.31614507612021403,0.7181507820533963
0.31814599432350654,0.7131484865451649
0.32014691252679905,0.717144236864562
0.3221478307300915,0.7211118975507818
0.324148748933384,0.7211118975507818
0.32614966713667654,0.7185393553123416
0.328150585339969,0.7135370598041104
0.3301515035432615,0.43943732689048276
0.332152421746554,0.14890234960512894
0.3341533399498465,0.14123216315917453
0.336154258153139,0.17280971924888766
0.3381551763564315,0.25503495166543966
0.34015609455972395,-0.027018468168990006
0.34215701276301647,-0.39811119726808997
0.344157930966309,-0.10063093626295982
0.34615884916960143,0.18684203382251063
0.34815976737289395,0.45644018179596535
0.35016068557618646,0.6197013601743944
0.3521616037794789,0.7297193789171148
0.3541625219827714,0.04514611614949615
0.35616344018606394,-0.33610291857333585
0.3581643583893564,0.11251431906284692
0.3601652765926489,0.09941169985644582
0.3621661947959414,-0.23630757607859065
0.3641671129992339,-0.09596210924081472
0.3661680312025264,0.05620842145574667
0.3681689494058189,0.03871247001632938
0.37016986760911136,0.04937353233182473
0.37217078581240387,0.08697972227908146
0.3741717040156964,0.09660591229982018
0.37617262221898884,0.09583695563604633
0.37817354042228135,0.0659852940151665
0.38017445862557386,0.062493124653514975
0.3821753768288663,0.09347325024426478
0.38417629503215883,0.03966830500807106
0.38617721323545134,-0.03834472925517274
0.3881781314387438,-0.008456872111027303
0.3901790496420363,0.04012983564014627
0.3921799678453288,0.1225959082411543
0.3941808860486213,0.1285189512368825
0.3961818042519138,0.09554927629626708
0.3981827224552063,0.09457731114827561
0.40018364065849876,0.0973581848327767
0.4021845588617913,0.10736277584923926
0.4041854770650838,0.10565398983098473
0.40618639526837624,0.09564939881452261
0.40818731347166876,0.09457731114827561
0.41018823167496127,0.09357544756497038
0.4121891498782537,0.08857315205673921
0.41419006808154624,0.046744177052367775
0.41619098628483875,-0.03079140332521746
0.4181919044881312,-0.01725883240850734
0.4201928226914237,0.011914982582135192
0.42219374089471623,0.005245255237826929
0.4241946590980087,0.003594989288691397
0.4261955773013012,0.008597284796922677
0.4281964955045937,0.02171561165103142
0.43019741370788617,0.03646454171105096
0.4321983319111787,0.024459032491295996
0.4341992501144712,0.0005851850937986791
0.43620016831776365,-0.04510244721471268
0.43820108652105616,-0.10905302269366096
0.44020200472434867,-0.1824200234810534
0.44220292292764113,-0.17998480833814196
0.44420384113093364,-0.1756695384413594
0.44620475933422615,-0.17316839068724377
0.4482056775375186,-0.1784324659713309
0.4502065957408111,-0.1892707729058321
0.45220751394410363,-0.18008468258943683
0.45420843214739615,-0.11314377059191305
0.4562093503506886,0.1790736586805859
0.4582102685539811,0.24338350837053457
0.4602111867572736,0.08380270242233756
0.4622121049605661,0.14046954455177763
0.4642130231638586,0.22986578453803153
0.4662139413671511,0.19102590613076198
0.46821485957044356,0.09768250862916672
0.4702157777737361,-0.06887011134013177
0.4722166959770286,-0.08997826784438945
0.47421761418032105,-0.044119675867285935
0.47621853238361356,0.3311174521267919
0.47821945058690607,0.48081762573824527
0.4802203687901985,0.20997905464972955
0.48222128699349104,-0.06085951643879095
0.48422220519678355,-0.3316980875273098
0.486223123400076,-0.31614111235289705
0.4882240416033685,-0.30006155296126563
0.49022495980666103,-0.31131671785478604
0.4922258780099535,-0.31605684345336693
0.494226796213246,-0.31605684345336693
0.4962277144165385,-0.31384010323516615
0.49822863261983097,-0.31182350165335004
0.5002295508231235,-0.31182350165335004
0.502230469026416,-0.30931650189232257
0.5042313872297085,-0.30431420638409123
0.5062323054330009,-0.30335681805331616
0.5082332236362934,-0.30335681805331616
0.5102341418395859,-0.30335681805331616
0.5122350600428784,-0.23874480973981171
0.514235978246171,-0.08617479673875705
0.5162368964494635,-0.045122968252283235
0.518237814652756,-0.045026995338929066
0.5202387328560484,-0.04252584758481359
0.5222396510593409,-0.05876477663134594
0.5242405692626334,-0.11045516354973606
0.5262414874659259,-0.09542877033533209
0.5282424056692184,-0.04498895729400143
0.5302433238725109,0.08489000530656388
0.5322442420758033,0.18700871151937204
0.5342451602790959,0.2044842633598165
0.5362460784823884,0.18280099694962304
0.5382469966856809,0.1322420816342852
0.5402479148889734,0.18043678615724756
0.5422488330922659,0.2245661850786529
0.5442497512955583,0.1958029859063245
0.5462506694988508,0.14586956652976157
0.5482515877021433,0.07458685553746558
0.5502525059054358,0.11442419752284938
0.5522534241087284,0.16664204533088411
0.5542543423120209,0.10494706739603332
0.5562552605153133,0.07022828078953836
0.5582561787186058,0.07272942854365405
0.5602570969218983,-0.06672740736937477
0.5622580151251908,-0.25255671645311295
0.5642589333284833,-0.25255671645311295
0.5662598515317758,-0.24912978120554552
0.5682607697350682,-0.23912519018908346
0.5702616879383607,-0.23562334925304523
0.5722626061416533,-0.23562334925304523
0.5742635243449458,-0.23562334925304523
0.5762644425482383,-0.23562334925304523
0.5782653607515308,-0.23562334925304523
0.5802662789548232,-0.23562334925304523
0.5822671971581157,-0.23562334925304523
0.5842681153614082,-0.24002405845074049
0.5862690335647007,-0.24409003285307906
0.5882699517679932,-0.24409003285307906
0.5902708699712857,-0.2465642613754005
0.5922717881745782,-0.25156655688363155
0.5942727063778707,-0.2585749203612378
0.5962736245811632,-0.26388737223579545
0.5982745427844557,-0.25138163346521714
0.6002754609877482,-0.07361038523799146
0.6022763791910407,0.33527289978265407
0.6042772973943331,0.11876777756320722
0.6062782155976256,-0.3206561307522705
0.6082791338009181,-0.30259228586143516
0.6102800520042106,-0.2898082516510501
0.6122809702075032,-0.2873071038969345
0.6142818884107957,-0.2907367700810607
0.6162828066140881,-0.2974064974253688
0.6182837248173806,-0.29930332793238945
0.6202846430206731,-0.3035877772594366
0.6222855612239656,-0.31525980011197635
0.6242864794272581,-0.3202901852533839
0.6262873976305506,-0.3202901852533839
0.628288315833843,-0.3202901852533839
0.6302892340371355,-0.3202901852533839
0.6322901522404281,-0.3202901852533839
0.6342910704437206,-0.3202901852533839
0.6362919886470131,-0.3202901852533839
0.6382929068503056,-0.3182923100936854
0.6402938250535981,-0.31605684345336693
0.6422947432568905,-0.31605684345336693
0.644295661460183,-0.3170914782753783
0.6462965796634755,-0.31959262602949395
0.648297497866768,-0.28872738597443315
0.6502984160700606,-0.24556415339416732
0.6522993342733531,-0.22305382360712644
0.6543002524766455,-0.2024342772532991
0.656301170679938,-0.18555152991301904
0.6583020888832305,-0.18540552234056906
0.660303007086523,-0.19453471164309122
0.6623039252898155,-0.2701361452162493
0.664304843493108,-0.3145435144659654
0.6663057616964004,-0.25951826387542415
0.668306679899693,-0.21439812018384152
0.6703075981029855,-0.17688090387210675
0.672308516306278,-0.049092969741261205
0.6743094345095705,0.06605384919243384
0.676310352712863,0.06438641735635675
0.6783112709161554,0.03000345791983705
0.6803121891194479,-0.03869473372653953
0.6823131073227404,-0.034437905872112595
0.6843140255260329,-0.024713743026867352
0.6863149437293254,-0.13076240780137105
0.688315861932618,-0.1932899312528759
0.6903167801359104,-0.1932899312528759
0.6923176983392029,-0.18790374409122856
0.6943186165424954,-0.18077951087676858
0.6963195347457879,-0.1882829541391155
0.6983204529490804,-0.19079346510428935
0.7003213711523729,-0.18329002184194237
0.7023222893556653,-0.1837921240349779
0.7043232075589578,-0.18879441954320925
0.7063241257622503,-0.1961667778507311
0.7083250439655429,-0.20079981172282568
0.7103259621688354,-0.19704809009165225
0.7123268803721279,-0.19188954599887503
0.7143277985754203,-0.18563667661358624
0.7163287167787128,-0.07313340426885317
0.7183296349820053,0.04138268836092074
0.7203305531852978,0.09153390743062428
0.7223314713885903,0.11279889239194196
0.7243323895918828,0.10336528299676628
0.7263333077951752,0.11980756691170313
0.7283342259984678,0.13079123924905944
0.7303351442017603,0.031169942540364648
0.7323360624050528,0.12210524498257724
0.7343369806083453,0.49055228434909015
0.7363378988116378,0.3426904549690232
0.7383388170149302,-0.003955270028950131
0.7403397352182227,-0.018461927002820788
0.7423406534215152,-0.08669094374838893
0.7443415716248077,-0.26427243429060016
0.7463424898281003,-0.32557103629061795
0.7483434080313928,-0.3205687407823866
0.7503443262346852,-0.3108427052949273
0.7523452444379777,-0.30083811427846474
0.7543461626412702,-0.2908335232620021
0.7563470808445627,-0.28362619154939406
0.7583479990478552,-0.27862389604116294
0.7603489172511477,-0.25917104479865527
0.7623498354544401,-0.2411226752149878
0.7643507536577326,-0.24028895929694927
0.7663516718610252,-0.24106103407551654
0.7683525900643177,-0.24356218182963218
0.7703535082676102,-0.23488131477662483
0.7723544264709027,-0.22461572425189552
0.7743553446741952,-0.2275337299650304
0.7763562628774876,-0.23146179207114687
0.7783571810807801,-0.23688094553839745
0.7803580992840726,-0.24615462089157286
0.7823590174873651,-0.25187437244717586
0.7843599356906577,0.010746141734958914
0.7863608538939502,0.15834311926232303
0.7883617720972426,0.06830180011416453
0.7903626903005351,0.03531052594803852
0.7923636085038276,0.03531052594803852
0.7943645267071201,0.02236530145838156
0.7963654449104126,0.0059987596477928395
0.7983663631137051,-0.018262373567128898
0.8003672813169975,0.028805903225405105
0.80236819952029,0.13285364979661618
0.8043691177235825,0.14879826190885748
0.8063700359268751,0.1401192674980588
0.8083709541301676,0.07959149184846204
0.8103718723334601,0.08180179485906469
0.8123727905367525,0.152459218912828
0.814373708740045,0.25824287555432923
0.8163746269433375,0.360371271145251
0.81837554514663,0.3335881472782627
0.8203764633499225,0.4080349896410711
0.822377381553215,0.6339720034295182
0.8243782997565074,0.692271646954113
0.8263792179598,0.6816908283237328
0.8283801361630925,0.6875268397500025
0.830381054366385,0.6914785049506631
0.8323819725696775,0.6914785049506631
0.83438289077297,0.7151264648813658
0.8363838089762624,0.7526436811930972
0.8383847271795549,0.7620150850617002
0.8403856453828474,0.6862473309498749
0.84238656358614,0.35415049026451906
0.8443874817894325,0.11082443300447542
0.846388399992725,-0.06064314080545308
0.8483893181960174,0.22155298671975932
0.8503902363993099,0.5126041110147335
0.8523911546026024,0.4809229061292686
0.8543920728058949,0.4567654314634457
0.8563929910091874,0.4409248290207133
0.8583939092124799,0.3957305599082446
0.8603948274157723,0.3465597108438565
0.8623957456190648,0.33980373702526845
0.8643966638223574,0.2845920361133567
0.8663975820256499,0.1558691732506805
0.8683985002289424,0.22440670249029493
0.8703994184322349,0.3719916988035108
0.8724003366355273,0.22705676842029088
0.8744012548388198,0.1637622904629341
0.8764021730421123,0.27426754578113466
0.8784030912454048,0.2667514172593526
0.8804040094486973,0.18903898805066832
0.8824049276519899,0.1196463724374387
0.8844058458552823,0.07063043070451958
0.8864067640585748,0.08363639902592057
0.8884076822618673,0.10281033061455025
0.8904086004651598,0.12704367329887067
0.8924095186684523,0.17177659819601443
0.8944104368717448,0.22281182843222114
0.8964113550750372,0.28848298997617716
0.8984122732783297,0.108460612345889
0.9004131914816222,-0.3467482789031595
0.9024141096849148,-0.3485553786375109
0.9044150278882073,-0.22753236449674713
0.9064159460914998,-0.1666711024799329
0.9084168642947923,-0.1246160449418729
0.9104177824980847,-0.11148501923276649
0.9124187007013772,-0.14192238004912416
0.9144196189046697,-0.18999330069254478
0.9164205371079622,-0.1366354819380775
0.9184214553112547,-0.0841887319930108
0.9204223735145473,-0.03371102277358584
0.9224232917178397,-0.069088568024817
0.9244242099211322,-0.15624977763793813
0.9264251281244247,-0.22280199224302527
0.9284260463277172,-0.26057318565472737
0.9304269645310097,-0.2113839464904529
0.9324278827343022,-0.1863248726264169
0.9344288009375946,-0.18132257711818583
0.9364297191408871,-0.18414792605521707
0.9384306373441796,-0.1883836086579987
0.9404315555474722,-0.19296904620721073
0.9424324737507647,-0.1897440051981013
0.9444333919540572,-0.1776551243865423
0.9464343101573496,-0.18529491940993553
0.9484352283606421,-0.197731604498954
0.9504361465639346,-0.20023275225306963
0.9524370647672271,-0.20175661485290974
0.9544379829705196,-0.20175661485290974
0.9564389011738121,-0.20001037599041982
0.9584398193771045,-0.19750922823630435
0.960440737580397,-0.1950080804821887
0.9624416557836896,-0.1602616298430113
0.9644425739869821,-0.054758670033045465
0.9664434921902746,0.10294631943295152
0.9684444103935671,0.292578794608629
0.9704453285968595,0.3934073131642536
0.972446246800152,0.4797888429231578
0.9744471650034445,0.5416426238900178
0.976448083206737,0.48083239508902564
0.9784490014100296,0.3167094615094368
0.9804499196133221,0.34388099840186237
0.9824508378166145,0.3943557284177631
0.984451756019907,0.38935343290953184
0.9864526742231995,0.3017512302422092
0.988453592426492,0.11916744419176672
0.9904545106297845,0.08666149646554255
0.992455428833077,0.0948644496207478
0.9944563470363694,0.0631832447352847
0.9964572652396619,0.007597762016380627
0.9984581834429545,-0.08577842080393705
1.000459101646247,-0.1328067088825673
1.0024600198495395,-0.15965727712921374
1.004460938052832,-0.25970318729384306
1.0064618562561245,-0.32875686885341776
1.008462774459417,-0.32875686885341776
1.0104636926627095,-0.331844387700099
1.0124646108660018,-0.33684668320832994
1.0144655290692943,-0.3325981261903422
1.0164664472725868,-0.32759583068211096
1.0184673654758793,-0.3225935351738795
1.0204682836791719,-0.31759123966564823
1.0224692018824644,-0.3125889441574171
1.0244701200857569,-0.30758664864918567
1.0264710382890494,-0.3010394233162304
1.028471956492342,-0.286032536791537
1.0304728746956344,-0.23598500328019034
1.032473792898927,-0.14510996821399136
1.0344747111022194,-0.026270766999196504
1.036475629305512,0.09499116507708594
1.0384765475088042,0.14451389060856878
1.0404774657120968,0.18585524295700584
1.0424783839153893,0.21408248189631196
1.0444793021186818,0.2544681179159489
1.0464802203219743,0.3002748524984654
1.0484811385252668,0.34046522098080556
1.0504820567285593,0.37200386388455464
1.0524829749318518,0.38397905616183503
1.0544838931351443,0.2873245436027936
1.0564848113384369,0.12236248036544406
1.0584857295417294,0.14017581460485296
1.0604866477450219,0.1328261955241702
1.0624875659483142,-0.011883067392500224
1.0644884841516067,-0.05797631623342414
1.0664894023548992,-0.018791668085611057
1.0684903205581917,-0.03758820281960917
1.0704912387614842,-0.05410120085650838
1.0724921569647767,0.002531930433112173
1.0744930751680692,0.0005045444385485265
1.0764939933713618,-0.07077816655374525
1.0784949115746543,-0.02997797436446692
1.0804958297779468,0.034215030254141854
1.0824967479812393,-0.03831825461521443
1.0844976661845318,-0.08512845790292756
1.086498584387824,-0.09013075341115817
1.0884995025911166,0.018496539688971247
1.0905004207944091,0.1785699959523782
1.0925013389977016,0.17426291886526546
1.0945022572009941,0.16824939656267013
1.0965031754042867,0.15991223738228433
1.0985040936075792,0.15768457341784892
1.1005050118108717,0.159352005253926
1.1025059300141642,0.15642678206559946
1.1045068482174567,0.14868010538776089
1.1065077664207492,0.12578498363854917
1.1085086846240417,0.05405423399398901
1.110509602827334,-0.060466644394665314
1.1125105210306265,0.06696475422909098
1.114511439233919,0.18890495060048562
1.1165123574372116,0.014472771102334248
1.118513275640504,0.12519718755228215
1.1205141938437966,0.5770544690418848
1.122515112047089,0.2857823055567903
1.1245160302503816,-0.177027239327257
1.1265169484536741,0.1497677343297792
1.1285178666569666,0.2769500010747705
1.1305187848602591,0.07515469632920846
1.1325197030635517,0.15484970521625818
1.134520621266844,0.3639456574602966
1.1365215394701365,0.32910234014672557
1.138522457673429,0.30442247633057296
1.1405233758767215,0.30775734000272714
1.142524294080014,0.3090666290158003
1.1445252122833065,0.3090666290158003
1.146526130486599,0.27499884566709176
1.1485270486898915,0.24798707785227614
1.150527966893184,0.25676094537068217
1.1525288850964766,0.2591837319655772
1.154529803299769,0.2559679705674286
1.1565307215030616,0.24204367188138287
1.158531639706354,0.22976136273470016
1.1605325579096464,0.23951583897575046
1.162533476112939,0.2567323262702129
1.1645343943162314,0.2829943776884264
1.166535312519524,0.2817127881747358
1.1685362307228164,0.25915564233238764
1.170537148926109,0.06156496975725778
1.1725380671294015,-0.023979277146046307
1.174538985332694,0.07773406485466017
1.1765399035359865,0.16621122615538741
1.178540821739279,0.24851089749319022
1.1805417399425715,0.10324045498033063
1.182542658145864,-0.009206275830938582
1.1845435763491563,-0.03796947500326442
1.1865444945524488,-0.12792769565327855
1.1885454127557413,-0.2579873788672881
1.1905463309590338,-0.26949008365318067
1.1925472491623264,-0.26839458795928606
1.1945481673656189,-0.26339229245105494
1.1965490855689114,-0.1905798668520008
1.1985500037722039,-0.056768462006809184
1.2005509219754964,0.2856084691759756
1.202551840178789,0.6152783525503585
1.2045527583820814,0.6152783525503585
1.206553676585374,0.6553111515666037
1.2085545947886662,0.7445187547967158
1.2105555129919587,0.49832365361469755
1.2125564311952512,0.1644748521045415
1.2145573493985438,0.1319599313010369
1.2165582676018363,0.09573249731266853
1.2185591858051288,0.05321298549270381
1.2205601040084213,0.09894173790312222
1.2225610222117138,0.1864819092971729
1.2245619404150063,0.2088482797141754
1.2265628586182988,0.20319278876777824
1.2285637768215913,0.1322872349764973
1.2305646950248839,0.09313121521806123
1.2325656132281761,0.07506737032722866
1.2345665314314687,0.00752987873620603
1.2365674496347612,-0.06518325781223666
1.2385683678380537,-0.13855025859963155
1.2405692860413462,-0.12792345991493836
1.2425702042446387,-0.04074059534290997
1.2445711224479312,-0.08365851532775148
1.2465720406512237,-0.08878418227233109
1.2485729588545162,0.30774283060790497
1.2505738770578088,0.4171514296006602
1.2525747952611013,0.16916998609700906
1.2545757134643938,-0.07881145740662965
1.256576631667686,-0.31333331943660175
1.2585775498709786,-0.33834479697775743
1.260578468074271,-0.3578366615996771
1.2625793862775636,-0.36784125261614004
1.2645803044808561,-0.37446806524309484
1.2665812226841486,-0.37947036075132595
1.2685821408874411,-0.3844726562595574
1.2705830590907337,-0.37205937919818133
1.2725839772940262,-0.31703412860763885
1.2745848954973187,-0.2869189207717821
1.2765858137006112,-0.2735794660831649
1.2785867319039037,-0.27231231151985863
1.2805876501071962,-0.27231231151985863
1.2825885683104885,-0.27231231151985863
1.284589486513781,-0.2532410111280006
1.2865904047170735,-0.21655751073430562
1.288591322920366,-0.21022329845294363
1.2905922411236586,-0.21089744964918633
1.292593159326951,-0.21589974515741778
1.2945940775302436,-0.22532615789099242
1.296594995733536,-0.24033304441568581
1.2985959139368286,-0.24109006002979882
1.3005968321401211,-0.23646629833754274
1.3025977503434136,-0.22157057393525453
1.3045986685467061,-0.20714085134558485
1.3065995867499984,-0.19352349135095626
1.308600504953291,-0.1907372858379363
1.3106014231565835,-0.1932384335920519
1.312602341359876,-0.04536875254257833
1.3146032595631685,0.0757662510043039
1.316604177766461,0.12257619320248525
1.3186050959697535,0.1344114038764811
1.320606014173046,0.12237016397452471
1.3226069323763385,0.1213778184172768
1.324607850579631,0.09227301361596363
1.3266087687829236,-0.047670619551432925
1.328609686986216,-0.008547745410327101
1.3306106051895084,0.19812558348584342
1.3326115233928009,0.2859131246557729
1.3346124415960934,0.31730859555041613
1.336613359799386,0.1438956845984034
1.3386142780026784,0.10275543760749484
1.340615196205971,0.23069293484832387
1.3426161144092634,0.3082836659577094
1.344617032612556,0.3655111863493593
1.3466179508158485,0.3655111863493593
1.348618869019141,0.363704086614986
1.3506197872224335,0.35870179110675493
1.352620705425726,0.3637345170509292
1.3546216236290183,0.3737391080673911
1.3566225418323108,0.3739778699493932
1.3586234600356033,0.3725593434739657
1.3606243782388958,0.3675570479657343
1.3626252964421883,0.3655111863493593
1.3646262146454808,0.3655111863493593
1.3666271328487734,0.3655111863493593
1.3686280510520659,0.3644812331328773
1.3706289692553584,0.3594789376246458
1.3726298874586509,0.2594657986987089
1.3746308056619434,0.06937856938592568
1.376631723865236,0.05968852374099265
1.3786326420685282,0.07729919571879951
1.3806335602718207,0.012703581152439747
1.3826344784751132,-0.05189203341392179
1.3846353966784057,-0.11648764798028577
1.3866363148816983,-0.060026163334237714
1.3886372330849908,0.030966462058873656
1.3906381512882833,-0.01557073054258884
1.3926390694915758,-0.004065403512870658
1.3946399876948683,0.11153709597955541
1.3966409058981608,0.16643594322079558
1.3986418241014533,0.1908122086339219
1.4006427423047458,0.18665642914773406
1.4026436605080381,0.15489126562434963
1.4046445787113306,0.05427968567941699
1.4066454969146232,0.0658270306146378
1.4086464151179157,0.1560463602786909
1.4106473333212082,0.1922899319445186
1.4126482515245007,0.20905337433589732
1.4146491697277932,0.1740281440648943
1.4166500879310857,0.07686094542339861
1.4186510061343782,-0.07999674944185942
1.4206519243376707,-0.17132695917899454
1.4226528425409632,-0.24167471453367206
1.4246537607442558,-0.267519907992868
1.4266546789475483,-0.30963192506487863
1.4286555971508406,-0.3730985493255542
1.430656515354133,-0.31037786087922775
1.4326574335574256,-0.20322686192274952
1.434658351760718,-0.09500259560974889
1.4366592699640106,-0.041768430690227176
1.4386601881673031,-0.08857562437439004
1.4406611063705956,-0.10604587140856792
1.4426620245738881,-0.10854701916268367
1.4446629427771807,-0.1550458956826959
1.4466638609804732,-0.19371963576040263
1.4486647791837657,-0.20836921546308051
1.4506656973870582,-0.23726120894753278
1.4526666155903505,-0.2762791139117313
1.454667533793643,-0.1591015067127864
1.4566684519969355,-0.055852250524683345
1.458669370200228,-0.08457755351891971
1.4606702884035205,-0.08459104860152233
1.462671206606813,-0.05666156534722999
1.4646721248101056,-0.08575403744180576
1.466673043013398,-0.11319936465758096
1.4686739612166906,-0.03483006836195979
1.470674879419983,-0.009408170069395427
1.4726757976232756,-0.054428829643478616
1.4746767158265681,-0.0331298652871761
1.4766776340298604,0.010185519472792892
1.478678552233153,0.01643838885808213
1.4806794704364454,0.02093331536705767
1.482680388639738,0.022183889244115518
1.4846813068430305,-0.02188347840403293
1.486682225046323,-0.08941446776515782
1.4886831432496155,-0.23186870161842915
1.490684061452908,-0.33585418283608337
1.4926849796562005,-0.3308518873278522
1.494685897859493,-0.32875686885341776
1.4966868160627855,-0.32875686885341776
1.498687734266078,-0.19391960719657259
1.5006886524693703,-0.04479876706936947
1.5026895706726628,0.09359807532503439
1.5046904888759554,0.24987277588602563
1.5066914070792479,0.4237761079662963
1.5086923252825404,0.23625129118270816
1.510693243485833,-0.005634054758438145
1.5126941616891254,-0.024892892465128047
1.514695079892418,-0.022282390208516523
1.5166959980957104,0.00981567263596661
1.518696916299003,-0.06048565679722395
1.5206978345022955,-0.16226493140912052
1.522698752705588,-0.1280825787695411
1.5246996709088803,-0.15862810418031836
1.5267005891121728,-0.3103644012633394
1.5287015073154653,-0.36262360325355325
1.5307024255187578,-0.36262360325355325
1.5327033437220503,-0.13138974294230055
1.5347042619253428,0.043777209548072404
1.5367051801286353,0.043777209548072404
1.5387060983319278,0.04281357907659111
1.5407070165352204,0.04114614724051391
1.5427079347385129,0.04095498168139444
1.5447088529418054,0.040633511435037795
1.546709771145098,0.0389660795989607
1.5487106893483904,0.039800965918382114
1.5507116075516827,0.04313582959053608
1.5527125257549752,0.004048324757459532
1.5547134439582677,-0.03439194811116497
1.5567143621615602,0.009794995544879725
1.5587152803648527,0.028858041526982126
1.5607161985681453,0.01358787629132907
1.5627171167714378,-0.006166774240968564
1.5647180349747303,-0.025967008827099902
1.5667189531780228,-0.004290394958098354
1.5687198713813153,0.0107730609667408
1.5707207895846078,0.013274208720856273
1.5727217077879003,-0.0179431270834024
1.5747226259911926,-0.06713236624767294
1.5767235441944851,-0.12272292070589857
1.5787244623977776,-0.15986950991321563
1.5807253806010702,-0.14569633930655984
1.5827262988043627,-0.1310440844007228
1.5847272170076552,-0.1160371978760294
1.5867281352109477,-0.11416249352847602
1.5887290534142402,-0.11657145824038218
1.5907299716175327,-0.12979181065499312
1.5927308898208252,-0.13821786460703805
1.5947318080241177,-0.14179093282720312
1.5967327262274102,-0.14047790967638574
1.5987336444307025,-0.13825648785265576
1.600734562633995,-0.13825648785265576
1.6027354808372876,-0.10732043851396272
1.60473639904058,-0.03353657976754865
1.6067373172438726,-0.032458054893705124
1.608738235447165,-0.057766034118392096
1.6107391536504576,-0.056098602282315
1.6127400718537501,-0.04702643103380144
1.6147409900570426,-0.023682385328722688
1.6167419082603351,-0.02441798259754291
1.6187428264636277,-0.03817429524517857
1.6207437446669202,-0.07186644477244719
1.6227446628702125,-0.09689411286605587
1.624745581073505,-0.09522668102997878
1.6267464992767975,-0.037825905767024826
1.62874741748009,0.061386288479565954
1.6307483356833825,0.07121258835210786
1.632749253886675,0.0738354578499909
1.6347501720899675,0.0988469353911482
1.63675109029326,-0.028018722450420697
1.6387520084965526,-0.31064841866548
1.640752926699845,-0.3728681265534016
1.6427538449031376,-0.37955697045362097
1.64475476310643,-0.37955697045362097
1.6467556813097224,-0.37955697045362097
1.648756599513015,-0.37955697045362097
1.6507575177163074,-0.37955697045362097
1.6527584359196,-0.37955697045362097
1.6547593541228924,-0.37955697045362097
1.656760272326185,-0.37955697045362097
1.6587611905294775,-0.37955697045362097
1.66076210873277,-0.37955697045362097
1.6627630269360625,-0.37955697045362097
1.664763945139355,-0.37955697045362097
1.6667648633426475,-0.3782531433136648
1.66876578154594,-0.3732508478054336
1.6707666997492325,-0.33130600306420244
1.6727676179525248,-0.2612738659489743
1.6747685361558173,-0.27299504565957244
1.6767694543591098,-0.2884831622193139
1.6787703725624024,-0.26889083814540865
1.6807712907656949,-0.26551663598234865
1.6827722089689874,-0.2789950433239724
1.68477312717228,-0.32517804151534435
1.6867740453755724,-0.3710556713460339
1.688774963578865,-0.34392200783168736
1.6907758817821574,-0.32434062523737345
1.69277679998545,-0.3155054020020561
1.6947777181887425,-0.3389366856768439
1.6967786363920347,-0.37345215684320165
1.6987795545953273,-0.35677783848243005
1.7007804727986198,-0.3361928189693802
1.7027813910019123,-0.3078464777560705
1.7047823092052048,-0.29434539620988953
1.7067832274084973,-0.289104896153647
1.7087841456117898,-0.28748483770685657
1.7107850638150823,-0.28964205465475523
1.7127859820183748,-0.3021477934253339
1.7147869002216674,-0.3118281832588805
1.7167878184249599,-0.3193316265212272
1.7187887366282524,-0.3235626275184791
1.7207896548315447,-0.32731434914965224
1.7227905730348372,-0.3310660707808256
1.7247914912381297,-0.3134960052287492
1.7267924094414222,-0.27347764116290013
1.7287933276447147,-0.23014704118495366
1.7307942458480072,-0.1928065554819609
1.7327951640512997,-0.2157337432280203
1.7347960822545923,-0.21135156538554078
1.7367970004578848,-0.16758147968851544
1.7387979186611773,-0.09888793063428558
1.7407988368644698,-0.021100479879221035
1.7427997550677623,0.02667144222438944
1.7448006732710546,0.05668533231390738
1.746801591474347,0.050932692479441544
1.7488025096776396,0.043741161185495314
1.7508034278809321,0.03573748837232549
1.7528043460842246,0.03057508195498637
1.7548052642875172,0.057228131035019225
1.7568061824908097,0.17680681413654453
1.7588071006941022,0.17613511520985004
1.7608080188973947,0.08156790964947414
1.7628089371006872,-0.02285936807974509
1.7648098553039797,-0.022514808665026753
1.7668107735072722,0.4738908720340389
1.7688116917105645,0.3734144004607579
1.770812609913857,-0.3637748505671703
1.7728135281171495,-0.5282859962103762
1.774814446320442,-0.4863730928580454
1.7768153645237346,0.0610520286297197
1.778816282727027,0.3090491917314232
1.7808172009303196,0.11928819908222033
1.782818119133612,-0.0056856248726872005
1.7848190373369046,-0.09930189324320887
1.7868199555401971,0.05615634990247442
1.7888208737434896,0.13821246907259455
1.7908217919467821,0.0702229359565485
1.7928227101500744,0.06948823599547038
1.794823628353367,0.10725556708261541
1.7968245465566595,0.18791389538849446
1.798825464759952,0.26368821675251475
1.8008263829632445,0.31718498815998664
1.802827301166537,0.27858875280491846
1.8048282193698295,0.1671209345631679
1.806829137573122,-0.20208292275834638
1.8088300557764145,-0.5412900558772157
1.810830973979707,-0.5462923513854469
1.8128318921829996,-0.5416786291361588
1.814832810386292,-0.5266717426114644
1.8168337285895846,-0.4044448536087767
1.8188346467928769,-0.2581030145238652
1.8208355649961694,-0.15655641570676643
1.822836483199462,-0.09318784182189704
1.8248374014027544,-0.08639901220358326
1.826838319606047,-0.09458496667204813
1.8288392378093394,-0.10877558183264002
1.830840156012632,-0.11735094556103681
1.8328410742159245,-0.12859900444616523
1.834841992419217,-0.1453924250809412
1.8368429106225095,-0.13417886223655284
1.838843828825802,-0.10670384818570255
1.8408447470290945,-0.1115787602055549
1.8428456652323868,-0.11188738506662321
1.8448465834356793,-0.09205069598225701
1.8468475016389718,-0.12387442846595398
1.8488484198422643,-0.1971223269793384
1.8508493380455568,-0.19795498396278782
1.8528502562488494,-0.19007624313717625
1.8548511744521419,-0.196078997747054
1.8568520926554344,-0.18998448366879667
1.858853010858727,-0.17064227437030288
1.8608539290620194,-0.20900530074770096
1.862854847265312,-0.2607528032535481
1.8648557654686044,-0.2884321717324269
1.8668566836718967,-0.29820897663095725
1.8688576018751892,-0.2810900097805652
1.8708585200784817,-0.2918933217137364
1.8728594382817743,-0.31377690156051785
1.8748603564850668,-0.3025217366669978
1.8768612746883593,-0.2973058429064855
1.8788621928916518,-0.3048092861688327
1.8808631110949443,-0.2808289322455364
1.8828640292982368,-0.23830942042557174
1.8848649475015293,-0.252806402081353
1.8868658657048218,-0.25974376120842296
1.8888667839081144,-0.23139741999511315
1.8908677021114066,0.07936911558583004
1.8928686203146992,0.6196170304748283
1.8948695385179917,0.14345561367859305
1.8968704567212842,-0.39059034428518236
1.8988713749245767,-0.38058575326871946
1.9008722931278692,-0.3717667788525936
1.9028732113311617,-0.36426333559024693
1.9048741295344542,-0.36262360325355325
1.9068750477377467,-0.3621788507282539
1.9088759659410393,-0.35717655522002245
1.9108768841443318,-0.35415691965351936
1.9128778023476243,-0.35415691965351936
1.9148787205509166,-0.35063635229536305
1.916879638754209,-0.3456902360534855
1.9188805569575016,-0.3456902360534855
1.920881475160794,-0.3456902360534855
1.9228823933640866,-0.3456902360534855
1.9248833115673791,-0.3425582419542742
1.9268842297706716,-0.3375559464460431
1.9288851479739642,-0.33722355245345165
1.9308860661772567,-0.3360180390296146
1.9328869843805492,-0.33101574352138313
1.9348879025838417,-0.32692792162657386
1.9368888207871342,-0.3235930579544198
1.9388897389904267,-0.32168530370116366
1.940890657193719,-0.31988171517093805
1.9428915753970115,-0.31738056741682247
1.944892493600304,-0.30899230070940636
1.9468934118035965,-0.29398541418471197
1.948894330006889,-0.28871041515439083
1.9508952482101816,-0.2866376343062216
1.952896166413474,-0.2891387820603371
1.9548970846167666,-0.2955724784592023
1.956898002820059,-0.308078217229781
1.9588989210233516,-0.3030630473063409
1.9608998392266441,-0.2907164831237667
1.9629007574299366,-0.2982199263861139
1.964901675633229,-0.30493451911674546
1.9669025938365214,-0.30993681462497663
1.968903512039814,-0.1202135801420875
1.9709044302431065,0.18742759361414763
1.972905348446399,0.2042240238524461
1.9749062666496915,0.2004108561486989
1.976907184852984,0.2004108561486989
1.9789081030562765,0.1990473385382424
1.980909021259569,0.19654619078412694
1.9829099394628615,0.19617751434868202
1.984910857666154,0.19617751434868202
1.9869117758694466,0.19617751434868202
1.9889126940727389,0.1950082833676985
1.9909136122760314,0.1925071356135829
1.9929145304793239,0.11118647716542196
1.9949154486826164,0.024343864995282072
1.996916366885909,0.13105950250421294
1.9989172850892014,0.19520256999717112
2.000918203292494,0.1927014222430553
2.002919121495786,0.29745000516202247
2.004920039699079,0.44784092585601054
2.0069209579023712,0.4007359764868361
2.008921876105664,0.3861584322025762
2.0109227943089563,0.44326797258821227
2.012923712512249,0.43271114718615866
2.0149246307155413,0.3806039023087535
2.016925548918834,0.2801932170466146
2.0189264671221263,0.25737261942646406
2.020927385325419,0.5003412583977336
2.0229283035287113,0.2557232583253999
2.0249292217320036,-0.401111770782685
2.0269301399352964,-0.12534707386973215
2.0289310581385887,0.20226741478017063
2.0309319763418814,-0.08120137616531453
2.0329328945451737,-0.16686194883868222
2.0349338127484664,-0.02420557602664719
2.0369347309517587,0.016792860876751026
2.0389356491550514,0.029059178084552828
2.0409365673583437,0.057072032930642225
2.0429374855616365,0.08031558017035645
2.0449384037649287,0.0959894394294799
2.0469393219682215,0.08782627992126857
2.0489402401715138,0.06918428275646882
2.050941158374806,0.07418657826469977
2.052942076578099,0.07687147903584601
2.054942994781391,0.07437033128173087
2.056943912984684,0.07803485800991872
2.058944831187976,0.08553830127226514
2.060945749391269,0.05376541494517506
2.062946667594561,0.026843842348004632
2.064947585797854,0.026843842348004632
2.066948504001146,0.025047666359867327
2.068949422204439,0.021712802687712696
2.070950340407731,0.01301718857728773
2.072951258611024,0.006058918278849634
2.074952176814316,0.014062591092019128
2.0769530950176085,0.01953000410960115
2.0789540132209012,0.022031151863716847
2.0809549314241935,0.02453229961783221
2.0829558496274863,0.026843842348004632
2.0849567678307785,0.026843842348004632
2.0869576860340713,0.02876095981232063
2.0889586042373636,0.03376325532055091
2.0909595224406563,0.03185550106729429
2.0929604406439486,0.026853205559063342
2.0949613588472413,0.010616812382191365
2.0969622770505336,0.001747315639730962
2.098963195253826,0.009667616861096517
2.1009641134571186,0.011710552474015201
2.102965031660411,0.010043120637938552
2.1049659498637037,0.02602573178173273
2.106966868066996,0.05398349973609806
2.1089677862702887,0.11734590950703705
2.110968704473581,0.13630016976064308
2.1129696226768737,0.11670784568673687
2.114970540880166,0.01719124954728901
2.1169714590834587,-0.10136894748465619
2.118972377286751,-0.24330908253070826
2.1209732954900438,-0.3202901852533839
2.122974213693336,-0.3202901852533839
2.1249751318966283,-0.3183765789932158
2.126976050099921,-0.31487766406063256
2.1289769683032134,-0.29862020365888214
2.130977886506506,-0.28616420694705347
2.1329788047097984,-0.27991133756176484
2.134979722913091,-0.26678118965369274
2.1369806411163834,-0.25052372925194444
2.138981559319676,-0.25168418222255945
2.1409824775229684,-0.21577885941463348
2.142983395726261,-0.09411588651799041
2.1449843139295535,0.10061795332293533
2.1469852321328458,0.3421216343238833
2.1489861503361385,-0.12144788544000601
2.150987068539431,-0.4774304595990706
2.1529879867427235,-0.24221140858976042
2.154988904946016,-0.1545573441367749
2.1569898231493085,-0.19668778852832908
2.158990741352601,-0.2605617937479431
2.1609916595558936,-0.3185338474989664
2.162992577759186,-0.3181050793125466
2.1649934959624786,-0.29851884689916247
2.166994414165771,-0.2559278737147964
2.1689953323690636,-0.25010230672753453
2.170996250572356,-0.2592475110223136
2.172997168775648,-0.3151064775308848
2.174998086978941,-0.35275009719191613
2.176999005182233,-0.3602535404542625
2.178999923385526,-0.36262360325355325
2.1810008415888182,-0.36262360325355325
2.183001759792111,-0.36758376431201983
2.1850026779954033,-0.3718381733369187
2.187003596198696,-0.37433932109103474
2.1890045144019883,-0.37684046884515016
2.191005432605281,-0.3793416165992662
2.1930063508085733,-0.3810808330534614
2.195007269011866,-0.3820101317510592
2.1970081872151583,-0.3803426999149824
2.1990091054184506,-0.37955697045362097
2.2010100236217434,-0.37955697045362097
2.2030109418250357,-0.3774654631833333
2.2050118600283284,-0.37496431542921727
2.2070127782316207,-0.3724631676751018
2.2090136964349134,-0.37560335458399174
2.2110146146382057,-0.3856079456004522
2.2130155328414984,-0.38422921277202426
2.2150164510447907,-0.37955697045362097
2.2170173692480835,-0.37955697045362097
2.2190182874513757,-0.37955697045362097
2.221019205654668,-0.37955697045362097
2.2230201238579608,-0.37955697045362097
2.225021042061253,-0.37955697045362097
2.227021960264546,-0.3597818686971662
2.229022878467838,-0.2562545464206093
2.231023796671131,0.04615695475887194
2.233024714874423,0.18289154345657133
2.235025633077716,0.21063154582039978
2.237026551281008,0.18610504005204087
2.239027469484301,0.18956257293577317
2.241028387687593,0.3117615060654141
2.243029305890886,0.3789450534161575
2.245030224094178,0.39645308769496335
2.2470311422974705,0.3868780339858293
2.249032060500763,0.37468011077881314
2.2510329787040555,0.3796824062870441
2.2530338969073482,0.380204405303578
2.2550348151106405,0.37520210979534707
2.2570357333139333,0.3689404623996897
2.2590366515172255,0.34887149986538935
2.2610375697205183,0.12851396952839933
2.2630384879238106,0.07930843477570593
2.2650394061271033,0.32134257898170127
2.2670403243303956,0.3880796460717223
2.269041242533688,0.3714053277109548
2.2710421607369806,0.34091499475752074
2.273043078940273,0.21401379301518464
2.2750439971435656,-0.14561647871033023
2.277044915346858,-0.29441282348952913
2.2790458335501507,-0.3025983979575451
2.281046751753443,-0.05407104694395548
2.2830476699567357,0.14743528164056685
2.285048588160028,0.08121055972997948
2.2870495063633207,0.0636201021845978
2.289050424566613,0.09052389546077388
2.2910513427699057,0.36046265998658533
2.293052260973198,0.6364450615504431
2.2950531791764903,0.6364450615504431
2.297054097379783,0.5460120480729613
2.2990550155830753,0.3425853640715708
2.301055933786368,0.3757856384845777
2.3030568519896604,0.4791562688426847
2.305057770192953,0.45795606406970424
2.3070586883962454,0.3405395024552028
2.309059606599538,0.05707609032205485
2.3110605248028304,-0.032996439529591304
2.313061443006123,-0.029661575857436673
2.3150623612094154,0.06207136342204289
2.317063279412708,0.0893854106160844
2.3190641976160005,-0.04567656810615017
2.3210651158192928,-0.08075700873979119
2.3230660340225855,-0.04824208793628304
2.325066952225878,-0.02658100139229025
2.3270678704291705,-0.009986348352280516
2.329068788632463,-0.007985430148988337
2.3310697068357555,-0.02454555634822353
2.333070625039048,-0.05831105102878231
2.3350715432423406,-0.11481276296319126
2.337072461445633,-0.1683361935132502
2.3390733796489256,-0.17167105718540443
2.341074297852218,-0.17353433618613023
2.34307521605551,-0.17353433618613023
2.345076134258803,-0.03620724065519565
2.347077052462095,0.13494445482606898
2.349077970665388,0.0999283862684448
2.35107888886868,0.07036872895542057
2.353079807071973,0.05035954692249511
2.3550807252752652,0.05288828270919743
2.357081643478558,0.06646594194582711
2.3590825616818503,0.0812089865588953
2.361083479885143,0.08698764831742356
2.3630843980884353,0.07031332995665385
2.365085316291728,0.050670873690200846
2.3670862344950203,0.028994259821203072
2.3690871526983126,0.02008477436484246
2.3710880709016053,0.012581331102494486
2.3730889891048976,0.005077887840148065
2.3750899073081904,-0.03982924279985711
2.3770908255114827,-0.11986597093154122
2.3790917437147754,-0.13402314605263882
2.3810926619180677,-0.1444724895944044
2.3830935801213604,-0.2245092177261167
2.3850944983246527,-0.1424125831613947
2.3870954165279454,0.1477205563160624
2.3890963347312377,0.22344201455089263
2.39109725293453,0.22627380069552583
2.3930981711378227,0.23502781783493176
2.395099089341115,0.25253643731443276
2.3971000075444078,0.28558731835096574
2.3991009257477,0.36552205436220053
2.401101843950993,0.4687837259249765
2.403102762154285,0.03718199775843867
2.405103680357578,-0.15515614749283801
2.40710459856087,0.29430010392170913
2.409105516764163,0.3375952407376631
2.411106434967455,0.09873563021963716
2.413107353170748,0.06308300635911224
2.41510827137404,0.07306351311602644
2.4171091895773325,0.17005246491450354
2.419110107780625,0.20004276491393969
2.4211110259839175,0.166277270233381
2.42311194418721,0.23811475148093375
2.4251128623905025,0.32515622548595235
2.4271137805937952,0.35733008068662653
2.4291146987970875,0.354191303579398
2.4311156170003803,0.30513470103844076
2.4331165352036725,0.20570604460285025
2.4351174534069653,0.09445324860174409
2.4371183716102576,0.09195210084762895
2.4391192898135503,0.11767026674347103
2.4411202080168426,0.1942053880194039
2.443121126220135,0.18968385995899872
2.4451220444234276,0.14423443219849075
2.44712296262672,0.2427998682145316
2.4491238808300126,0.29930960575840315
2.451124799033305,0.23660225849450844
2.4531257172365977,0.22978481674240658
2.45512663543989,0.2623220692222835
2.4571275536431827,0.21229812556878502
2.459128471846475,0.17209546318528124
2.4611293900497677,0.20941561937093467
2.46313030825306,0.24020865275403736
2.4651312264563523,0.2647085318909409
2.467132144659645,0.27328736122343134
2.4691330628629373,0.27432604081492307
2.47113398106623,0.24736513928894077
2.4731348992695223,0.20886728152485412
2.475135817472815,0.15516616798059857
2.4771367356761074,0.17160731588356315
2.4791376538794,0.21080632347198758
2.4811385720826924,0.20822449353225558
2.483139490285985,0.20651036142252632
2.4851404084892774,0.20638126992553973
2.48714132669257,0.17370299884393314
2.4891422448958624,0.12434701649605484
2.4911431630991547,0.15389130253760286
2.4931440813024475,0.1781632814720001
2.4951449995057398,0.18191500310317277
2.4971459177090325,0.1870219659350275
2.499146835912325,0.193096181909308
2.5011477541156175,0.13749748024144848
2.50314867231891,0.05900008832786119
2.5051495905222025,-0.08151894003974736
2.507150508725495,-0.13703927041499187
2.5091514269287876,-0.10952664511971932
2.51115234513208,-0.11944251971140396
2.513153263335372,-0.1311668985191135
2.515154181538665,-0.09348293902376559
2.517155099741957,-0.07693174688842597
2.51915601794525,-0.08860376974096584
2.521156936148542,-0.10180901840440332
2.523157854351835,-0.11642674646946494
2.525158772555127,-0.15019224115002355
2.52715969075842,-0.11426560031688732
2.5291606089617122,0.050810151454732666
2.531161527165005,0.10519292971309113
2.5331624453682973,0.10202480922454527
2.53516336357159,0.07680390786269997
2.5371642817748823,0.05151980482621343
2.5391651999781746,0.02817575912113579
2.5411661181814673,0.04353298579296094
2.5431670363847596,0.08688621353096215
2.5451679545880523,0.09471541851139531
2.5471688727913446,0.08015484504717552
2.5491697909946374,-0.008219042264923426
2.5511707091979297,0.015571136438908617
2.5531716274012224,0.15037658718639202
2.5551725456045147,0.16944230566392704
2.5571734638078074,0.16079008431715103
2.5591743820110997,0.1478429665311416
2.5611753002143924,0.15500723927525428
2.5631762184176847,0.18939276638225333
2.565177136620977,0.2289173821178747
2.5671780548242698,0.2677916524802476
2.569178973027562,0.2456211525511076
2.5711798912308548,0.24992551279537045
2.573180809434147,0.30400403738179516
2.57518172763744,0.31933559672224343
2.577182645840732,0.3142273702503088
2.579183564044025,0.2967722335241707
2.581184482247317,0.2892845048510547
2.58318540045061,0.31012740280202145
2.585186318653902,0.34239488124660356
2.5871872368571944,0.3830385322509796
2.589188155060487,0.3035674005872866
2.5911890732637795,0.22480209898395886
2.593189991467072,0.2151309943347116
2.5951909096703645,0.2129944266112045
2.597191827873657,0.2184135800784558
2.5991927460769495,0.1659899366940064
2.6011936642802422,0.11527351879266645
2.6031945824835345,0.18530565590789005
2.6051955006868273,0.23690859712299694
2.6071964188901195,0.26323019967821193
2.6091973370934123,0.217741212350969
2.6111982552967046,0.1473070144942018
2.613199173499997,0.12285134756507288
2.6152000917032896,0.13314002100597344
2.617201009906582,0.20970293281249763
2.6192019281098746,0.2541525275432054
2.621202846313167,0.2814150380630639
2.6232037645164596,0.227619996365511
2.625204682719752,0.16961115857104603
2.6272056009230447,0.10958361247226955
2.629206519126337,0.07839779947858938
2.6312074373296297,0.06864332323753686
2.633208355532922,0.0602846286717168
2.6352092737362143,0.06434623357556513
2.637210191939507,0.12103891600219463
2.6392111101427993,0.10536177961918092
2.641212028346092,0.01615417638905492
2.6432129465493843,-0.03442484939447055
2.645213864752677,-0.07013041441089884
2.6472147829559693,-0.06234906584253963
2.649215701159262,-0.05012015881831089
2.6512166193625544,-0.03170745407525055
2.653217537565847,-0.16951290344209985
2.6552184557691394,-0.3587764939097148
2.657219373972432,-0.32792900494228405
2.6592202921757244,-0.35786124002873076
2.6612212103790167,-0.5054289575215427
2.6632221285823094,-0.5605993378834861
2.6652230467856017,-0.5656016333917164
2.6672239649888945,-0.06908009420961425
2.6692248831921868,0.3128454649456648
2.6712258013954795,0.3082279613996045
2.673226719598772,0.30909783971933036
2.6752276378020645,0.31410013522756164
2.677228556005357,0.31690675774247434
2.6792294742086495,0.3214472128652265
2.681230392411942,0.3349534107374499
2.683231310615234,0.34377636451827454
2.685232228818527,0.3477782009248601
2.687233147021819,0.12202088276197676
2.689234065225112,-0.0967541328607
2.691234983428404,0.21805699779063192
2.693235901631697,0.42803844971168203
2.695236819834989,0.4902892382585555
2.697237738038282,0.4143972915555785
2.699238656241574,0.289485813888821
2.701239574444867,0.29532182531509166
2.7032404926481592,0.31602583563535036
2.705241410851452,0.36592968844366514
2.7072423290547443,0.3549690466979888
2.7092432472580366,0.3104843473569354
2.7112441654613293,0.29923096593219134
2.7132450836646216,0.26658339963869115
2.7152460018679143,0.1682049213101281
2.7172469200712066,0.03436328109590059
2.7192478382744993,-0.1265438910855627
2.7212487564777916,-0.07453632539250421
2.7232496746810844,0.007546264355581145
2.7252505928843767,0.0875829924872652
2.7272515110876694,0.12134345444187178
2.7292524292909617,0.10683679746800212
2.7312533474942544,0.13936950837253104
2.7332542656975467,0.16405397576741354
2.735255183900839,0.018487176477913092
2.7372561021041317,-0.05010778576653441
2.739257020307424,-0.008755476231825488
2.7412579385107168,0.004953630226721462
2.743258856714009,0.002223278868536016
2.7452597749173018,-0.20662255860015089
2.747260693120594,-0.3456902360534855
2.749261611323887,-0.3456902360534855
2.751262529527179,-0.34248099546303823
2.753263447730472,-0.3374786999548062
2.755264365933764,-0.33722355245345165
2.7572652841370564,-0.33722355245345165
2.759266202340349,-0.33722355245345165
2.7612671205436414,-0.3344028851219503
2.763268038746934,-0.32940058961371826
2.7652689569502265,-0.03915379115759898
2.767269875153519,0.21986926215330516
2.7692707933568115,0.1418969734377059
2.771271711560104,0.28702106004445205
2.7732726297633965,0.6679101323139842
2.7752735479666892,0.72269193941697
2.7772744661699815,0.6958957061678375
2.7792753843732743,0.6977147227162854
2.7812763025765666,0.6859436113364501
2.783277220779859,0.6544956137007929
2.7852781389831516,0.6136515846597419
2.787279057186444,0.5650119539805101
2.7892799753897366,0.34657838345437864
2.791280893593029,0.10194147664608821
2.7932818117963216,-0.19569510609371704
2.795282729999614,-0.30016396308222176
2.7972836482029066,-0.2951616675739904
2.799284566406199,-0.022871297170724558
2.8012854846094917,0.20365813478408334
2.803286402812784,0.24992936823521927
2.8052873210160763,0.23014418802240977
2.807288239219369,0.15858357172409987
2.8092891574226613,0.18493328945697063
2.811290075625954,0.20911132742485317
2.8132909938292463,0.15314814642651986
2.815291912032539,0.10716653855078795
2.8172928302358313,0.07187256468715875
2.819293748439124,0.09302743962883486
2.8212946666424163,0.11173706741572842
2.823295584845709,-0.03023284319885644
2.8252965030490014,-0.14971120618187972
2.827297421252294,-0.2361794571098904
2.8292983394555864,-0.2628059213584902
2.8312992576588787,-0.26267746980678475
2.8333001758621714,-0.13449364740833913
2.8353010940654637,-0.04850279484420994
2.8373020122687564,-0.049128081782738864
2.8393029304720487,-0.07476806486622989
2.8413038486753415,-0.11478642893208602
2.8433047668786338,-0.16305495234222528
2.8453056850819265,-0.21120233920929904
2.847306603285219,-0.2574735726604349
2.8493075214885115,-0.19013804033012843
2.851308439691804,-0.03256573182085476
2.8533093578950965,0.03849050650393837
2.855310276098389,0.08180355046113486
2.857311194301681,0.05679207291998023
2.859312112504974,0.047376193798848054
2.861313030708266,0.054879637061194364
2.863313948911559,0.043484375122200825
2.865314867114851,0.029920242381555218
2.867315785318144,0.04455195674313195
2.869316703521436,0.05506163447615198
2.871317621724729,0.05943864304585489
2.873318539928021,0.050064605774139403
2.875319458131314,0.035268391498272655
2.8773203763346062,0.032767243744157515
2.8793212945378985,0.02316907460772355
2.8813222127411913,-0.0012171159949074806
2.8833231309444836,-0.003956733030677895
2.8853240491477763,0.005922800598080258
2.8873249673510686,0.021713973089097283
2.8893258855543613,0.011159995663728606
2.8913268037576536,-0.08104898487131562
2.8933277219609463,-0.08586300181049056
2.8953286401642386,-0.020332930652665726
2.8973295583675314,0.0717000605278858
2.8993304765708237,0.15531880209029703
2.9013313947741164,0.17657855800028321
2.9033323129774087,0.17758334758703298
2.905333231180701,0.15632359167705445
2.9073341493839937,0.4487314062411438
2.909335067587286,0.7429653129619012
2.9113359857905787,0.1937739000429738
2.913336903993871,-0.08616974526611543
2.9153378221971638,0.03997039038517325
2.917338740400456,0.07036823404283754
2.9193396586037488,0.061940817191107445
2.921340576807041,0.12764053141399412
2.923341495010334,0.15240008819949336
2.925342413213626,0.09056464725671498
2.9273433314169184,0.0795189687628085
2.929344249620211,0.09850089368243642
2.9313451678235034,0.043036930673724716
2.933346086026796,0.00010134116233162516
2.9353470042300884,0.01198179299438007
2.937347922433381,0.024826538525361652
2.9393488406366735,0.03845779378528913
2.941349758839966,0.02779764144787178
2.9433506770432585,0.012205827325651675
2.945351595246551,-0.008011783686786011
2.9473525134498435,-0.03138479682607853
2.9493534316531362,-0.0582721351828257
2.9513543498564285,-0.03447122887146514
2.953355268059721,-0.003487477316437282
2.9553561862630136,-0.045792605043199486
2.957357104466306,-0.058809524977527894
2.9593580226695986,-0.02704494850025463
2.961358940872891,-0.016727275114016393
2.9633598590761836,-0.015924964966408828
2.965360777279476,-0.058217099717815635
2.9673616954827686,-0.0760179471424598
2.969362613686061,-0.04122925565339941
2.9713635318893536,-0.007236607344541346
2.973364450092646,0.026278772560605734
2.9753653682959387,0.07892155409721191
2.977366286499231,0.12769699506606957
2.9793672047025233,0.159854609047554
2.981368122905816,0.12758664293571398
2.9833690411091083,0.04207121019976656
2.985369959312401,0.049267367365856796
2.9873708775156933,0.05830493374682644
2.989371795718986,-0.004307131697877664
2.9913727139222783,-0.0619446791604773
2.993373632125571,-0.11396855244609033
2.9953745503288634,-0.10093199763521232
2.997375468532156,-0.07673589972379435
2.9993763867354484,-0.13342858215040393
3.0013773049387407,-0.15612032415170496
3.0033782231420334,-0.12610655110231284
3.0053791413453257,-0.1170897788525711
3.0073800595486184,-0.11710733487330716
3.0093809777519107,-0.1196084826274223
3.0113818959552034,-0.14963747089478918
3.0133828141584957,-0.23967879004294557
3.0153837323617885,-0.2815007426390204
3.0173846505650808,-0.2940064814095977
3.0193855687683735,-0.3041878030347987
3.021386486971666,-0.31360017095178266
3.0233874051749585,-0.3211036142141297
3.025388323378251,-0.33223686229698657
3.027389241581543,-0.3464100329036408
3.029390159784836,-0.35135263794137167
3.031391077988128,-0.3484863249559539
3.033391996191421,-0.3128449694598054
3.035392914394713,-0.30587994009338537
3.037393832598006,-0.33170429065463314
3.039394750801298,-0.35752864121587513
3.041395669004591,-0.3803542478752858
3.043396587207883,-0.3693491977571779
3.045397505411176,-0.3665140174485398
3.047398423614468,-0.3765186084650003
3.0493993418177605,-0.3853621613101549
3.0514002600210532,-0.3936743519277168
3.0534011782243455,-0.39534178376379386
3.0554020964276383,-0.3964903376536887
3.0574030146309306,-0.3964903376536887
3.0594039328342233,-0.39339579639871314
3.0614048510375156,-0.38839350089048225
3.0634057692408083,-0.3880236540536548
3.0654066874441006,-0.3880236540536548
3.0674076056473933,-0.3880236540536548
3.0694085238506856,-0.3880236540536548
3.0714094420539784,-0.3880236540536548
3.0734103602572707,-0.3880236540536548
3.075411278460563,-0.3880236540536548
3.0774121966638557,-0.3880236540536548
3.079413114867148,-0.38570625931657004
3.0814140330704407,-0.38070396380833804
3.083414951273733,-0.3699187150698376
3.0854158694770257,-0.3294286283598249
3.087416787680318,0.041176221467369434
3.0894177058836108,0.25972452661056755
3.091418624086903,0.23597884732410457
3.093419542290196,0.18260099450538414
3.095420460493488,0.11613917957508557
3.097421378696781,0.1381720175181621
3.099422296900073,0.15634130975336735
3.1014232151033654,0.16582643162089739
3.103424133306658,0.1682216890117455
3.1054250515099504,0.1661851071631787
3.107425969713243,0.1480880262914548
3.1094268879165354,0.15510662774738926
3.111427806119828,0.2505924156234861
3.1134287243231205,0.3029540649213118
3.115429642526413,0.31823420950610093
3.1174305607297055,0.15247483981338195
3.119431478932998,-0.029939123540819956
3.1214323971362905,-0.12054783268875247
3.123433315339583,-0.08905848461135935
3.1254342335428755,0.08576876584449966
3.127435151746168,0.13962672915632546
3.1294360699494606,0.15076651691047727
3.131436988152753,0.08704496797486738
3.1334379063560456,0.03643807844207392
3.135438824559338,0.007020112301857284
3.1374397427626306,0.0335118339357674
3.139440660965923,0.08515153589139435
3.1414415791692156,0.12485079326338877
3.143442497372508,0.1316218000467645
3.1454434155758006,0.0633061368804193
3.147444333779093,0.014553601384888037
3.1494452519823852,-0.021799979340704656
3.151446170185678,0.12441509838984288
3.1534470883889703,0.22671562721735528
3.155448006592263,0.1250022852166509
3.1574489247955553,0.07675287836243339
3.159449842998848,0.07508544652635607
3.1614507612021403,0.0706106119077774
3.163451679405433,0.06511050567824495
3.1654525976087253,0.056773346497861144
3.167453515812018,0.06845914773416029
3.1694544340153104,0.10396324512184796
3.1714553522186026,0.1348989519040349
3.1734562704218954,0.14965640020237514
3.1754571886251877,-0.027091374421783665
3.1774581068284804,-0.110427073916541
3.1794590250317727,-0.04072842316853287
3.1814599432350654,-0.014641034649948703
3.1834608614383577,-0.008471536856463846
3.1854617796416504,-0.004497946136572839
3.1874626978449427,0.01209988649386573
3.1894636160482355,0.057995947781888435
3.1914645342515278,0.1511716018320245
3.1934654524548205,0.2747283008853554
3.195466370658113,0.22961986120756317
3.197467288861405,0.17610921032592575
3.199468207064698,0.14695297364937332
3.20146912526799,0.08246536599835486
3.203470043471283,-0.013213460786070552
3.205470961674575,0.011041555772751455
3.207471879877868,0.06996114554071542
3.20947279808116,0.19658490860765143
3.211473716284453,0.2485601611735826
3.213474634487745,0.21055661057633324
3.215475552691038,0.2951955194992636
3.21747647089433,0.4159705060804053
3.219477389097623,0.5039275354334851
3.2214783073009152,0.5203006705051525
3.2234792255042075,0.41775361258641874
3.2254801437075002,0.19445234271102174
3.2274810619107925,-0.08484248983183407
3.2294819801140853,-0.08993412597892125
3.2314828983173776,-0.04099262177389984
3.2334838165206703,0.1290854255059889
3.2354847347239626,0.22170764690242784
3.2374856529272553,0.2638698519003779
3.2394865711305476,0.259302820306233
3.2414874893338403,0.24480760818587333
3.2434884075371326,0.21095278679981055
3.245489325740425,0.2276396269548676
3.2474902439437177,0.2895361625842
3.24949116214701,0.3004386701073347
3.2514920803503027,0.29754707045000084
3.253492998553595,0.2722021065416309
3.2554939167568877,0.2890418416311239
3.25749483496018,0.3574065469102796
3.2594957531634727,0.39076109137212955
3.261496671366765,0.4130197544619243
3.2634975895700578,0.4367968993452058
3.26549850777335,0.4354243149240309
3.267499425976643,0.39168265136057023
3.269500344179935,0.1902625008290505
3.2715012623832274,-0.08538482457242358
3.27350218058652,-0.22386939830376085
3.2755030987898124,-0.3217648909951647
3.277504016993105,-0.32676718650339676
3.2795049351963974,-0.33176948201162765
3.28150585339969,-0.3367717775198597
3.2835067716029824,-0.3303977715914932
3.285507689806275,-0.3272388582604932
3.2875086080095675,-0.33974459703106885
3.28950952621286,-0.3430661961542204
3.2915104444161525,-0.3380639006459895
3.2935113626194448,-0.3330616051377586
3.2955122808227375,-0.33015198730119993
3.29751319902603,-0.3401565783176604
3.2995141172293225,-0.3456902360534855
3.301515035432615,-0.3456902360534855
3.3035159536359076,-0.3456902360534855
3.3055168718392,-0.3456902360534855
3.3075177900424926,-0.3456902360534855
3.309518708245785,-0.34753712943485954
3.3115196264490776,-0.3525394249430909
3.31352054465237,-0.35415691965351936
3.3155214628556626,-0.35415691965351936
3.317522381058955,-0.35415691965351936
3.319523299262247,-0.35415691965351936
3.32152421746554,-0.35415691965351936
3.3235251356688322,-0.35116069211466305
3.325526053872125,-0.346158396606431
3.3275269720754173,-0.29581475154534637
3.32952789027871,-0.21975114597295137
3.3315288084820023,-0.06634741705387015
3.333529726685295,-0.03289578501072887
3.3355306448885873,-0.10959764947025946
3.33753156309188,-0.10649745127525984
3.3395324812951723,-0.08242073430481633
3.341533399498465,-0.029896631468380175
3.3435343177017574,-0.017553745690170985
3.3455352359050496,-0.055606922234922584
3.3475361541083424,-0.07375700527206008
3.3495370723116347,-0.08298938977646397
3.3515379905149274,-0.05487042563170508
3.3535389087182197,-0.04214436766758134
3.3555398269215124,-0.056090161205682776
3.3575407451248047,-0.07780809885682527
3.3595416633280974,-0.10329598549400415
3.3615425815313897,-0.11836377747729743
3.3635434997346825,-0.1276453948398502
3.3655444179379748,-0.1231433288824424
3.367545336141267,-0.10562164592289675
3.36954625434456,-0.07926339651413916
3.371547172547852,-0.08221838991198804
3.373548090751145,-0.10209611786350925
3.375549008954437,-0.17362894363121117
3.37754992715773,-0.1819780018922984
3.379550845361022,-0.13153818885097007
3.381551763564315,-0.18191909168941506
3.383552681767607,-0.2454196088234471
3.3855535999709,-0.25542419983991116
3.387554518174192,-0.2599220523523403
3.389555436377485,-0.25742090459822425
3.391556354580777,-0.2511791540260674
3.3935572727840695,-0.23976266880868252
3.3955581909873622,-0.16139337251304753
3.3975591091906545,-0.09723469966832254
3.3995600273939472,-0.05805005152050513
3.4015609455972395,-0.04847499781137943
3.4035618638005323,-0.053477293319611485
3.4055627820038246,-0.05358965185231712
3.4075637002071173,-0.07948712323993912
3.4095646184104096,-0.17036215830613405
3.4115655366137023,-0.20641325181954856
3.4135664548169946,-0.20474581998347152
3.415567373020287,-0.18282225142278757
3.4175682912235796,-0.16170773963377927
3.419569209426872,-0.15230687393727754
3.4215701276301647,-0.16736384556940936
3.423571045833457,-0.20547788748315765
3.4255719640367497,-0.21538102326475395
3.427572882240042,-0.22721896701891442
3.4295738004433347,-0.2930183925502655
3.431574718646627,-0.32097784108096045
3.4335756368499197,-0.30019907512368893
3.435576555053212,-0.23809582217328162
3.4375774732565048,-0.16570825227604413
3.439578391459797,-0.1644576783989864
3.4415793096630893,-0.16815087996104344
3.443580227866382,-0.18065661873162187
3.4455811460696744,-0.1614737400746436
3.447582064272967,-0.12645767151701948
3.4495829824762594,-0.11743387685898543
3.451583900679552,-0.11218345625769449
3.4535848188828444,-0.11480370628581515
3.455585737086137,-0.08748546050900652
3.4575866552894294,-0.03928874029478169
3.459587573492722,-0.05957692372391521
3.4615884916960145,-0.07845967802640108
3.463589409899307,-0.0610409704530932
3.4655903281025995,-0.05715405606225121
3.4675912463058918,-0.0661922945373491
3.4695921645091845,-0.0015417959783736723
3.471593082712477,0.08476700676129723
3.4735940009157695,0.20815696263102035
3.475594919119062,0.31476617164089693
3.4775958373223546,0.39947170891361483
3.479596755525647,0.38044035822226085
3.4815976737289396,0.32170883658753513
3.483598591932232,0.19487285492328021
3.4855995101355246,0.10527700354571823
3.487600428338817,0.08301678853409067
3.489601346542109,0.06497677338696062
3.491602264745402,0.04907661980722522
3.493603182948694,0.037513221349650294
3.495604101151987,0.06844305641436488
3.4976050193552792,0.20916239315186058
3.499605937558572,0.2694739659416371
3.5016068557618643,0.27294778226679706
3.503607773965157,0.3341634867466995
3.5056086921684493,0.3749426796889267
3.507609610371742,0.3069000919235435
3.5096105285750343,0.24362974131468562
3.511611446778327,0.1849778264806652
3.5136123649816193,0.18545219016096126
3.5156132831849116,0.19769123346987505
3.5176142013882044,0.19852494938791365
3.5196151195914966,0.1474583864063138
3.5216160377947894,0.02773678057596074
3.5236169559980817,-0.09739894599566107
3.5256178742013744,-0.21675999017345116
3.5276187924046667,-0.17424047835348838
3.5296197106079594,0.05183542306578148
3.5316206288112517,0.6145936677417589
3.5336215470145445,0.8024758608500828
3.5356224652178367,0.7974735653418519
3.537623383421129,0.7779489294812265
3.5396243016244218,0.7595914178790955
3.541625219827714,0.745584990456049
3.543626138031007,0.7438186206897848
3.545627056234299,0.750821834401308
3.547627974437592,0.741606294556794
3.549628892640884,0.6808830284363006
3.551629810844177,0.41897712789815245
3.553630729047469,0.2682137917133659
3.555631647250762,0.22642991158578074
3.557632565454054,-0.002702275027517853
3.559633483657347,-0.25487600612580363
3.561634401860639,-0.3583758822365677
3.5636353200639315,-0.41445131726747353
3.565636238267224,-0.4069478740051255
3.5676371564705165,-0.40495702125372257
3.5696380746738092,-0.40495702125372257
3.5716389928771015,-0.40495702125372257
3.5736399110803942,-0.40495702125372257
3.5756408292836865,-0.40495702125372257
3.5776417474869793,-0.40495702125372257
3.5796426656902716,-0.40495702125372257
3.5816435838935643,-0.31329352578957204
3.5836445020968566,-0.24409003285307906
3.585645420300149,-0.24409003285307906
3.5876463385034416,-0.21028103825446692
3.589647256706734,-0.15192092399177298
3.5916481749100266,-0.11721852300462476
3.593649093113319,-0.06627056069643722
3.5956500113166117,0.06462283843563399
3.597650929519904,0.122101940560287
3.5996518477231967,0.10664613007972601
3.601652765926489,0.09644581193978385
3.6036536841297817,0.09211935677851735
3.605654602333074,0.12292714498793944
3.6076555205363667,0.16677091952756484
3.609656438739659,0.2283269448093982
3.6116573569429513,0.21075686996841703
3.613658275146244,0.16488465978856193
3.6156591933495363,0.13772934131530834
3.617660111552829,0.13002408741461213
3.6196610297561214,0.15903740136235145
3.621661947959414,0.19916906028202086
3.6236628661627064,0.2451901789577393
3.625663784365999,0.2114723196134296
3.6276647025692914,0.19930314626602785
3.629665620772584,0.2545849248313611
3.6316665389758764,0.38451860233245905
3.633667457179169,0.5693951071575101
3.6356683753824615,0.4462615017016387
3.6376692935857537,0.3114888396989045
3.6396702117890465,0.2995389115403503
3.6416711299923388,0.3020204225601667
3.6436720481956315,0.3190282272881556
3.645672966398924,0.25054510576245004
3.6476738846022165,0.18722365586738543
3.649674802805509,0.32565616525291996
3.6516757210088016,0.4178260376915881
3.653676639212094,0.44628829662612124
3.6556775574153866,0.29757364210799775
3.657678475618679,0.09253808180640466
3.659679393821971,0.15423305974125257
3.661680312025264,0.21521311749838534
3.663681230228556,0.274823805638137
3.665682148431849,0.17511087466674213
3.667683066635141,-0.010224173913213064
3.669683984838434,0.0773769623884526
3.6716849030417262,0.14058382699786431
3.673685821245019,0.10301608244866722
3.6756867394483113,0.06544833789947857
3.677687657651604,0.02788059335028159
3.6796885758548963,-0.14653750323342152
3.681689494058189,-0.3042954799619744
3.6836904122614813,-0.3092977754702053
3.6856913304647736,-0.2078075899997296
3.6876922486680663,0.0022888213460152684
3.6896931668713586,0.041769971177314735
3.6916940850746514,0.039543867748055406
3.6936950032779436,0.039543867748055406
3.6956959214812364,0.03780387102627092
3.6976968396845287,0.033635291436078574
3.6996977578878214,0.06723653978932731
3.7016986760911137,0.11310242422835759
3.7036995942944064,0.09684496382660557
3.7057005124976987,0.07319501421355645
3.707701430700991,0.0351775683510015
3.7097023489042837,0.07820128908650481
3.711703267107576,0.1654079741133302
3.7137041853108688,0.08261619915426832
3.715705103514161,0.00524291443505609
3.717706021717454,-0.03410847689636398
3.719706939920746,-0.04335800296767478
3.721707858124039,-0.02985180509544838
3.723708776327331,0.001520080438013438
3.725709694530624,0.025154660552899055
3.727710612733916,0.0034685726393780536
3.729711530937209,-0.022979461765171516
3.731712449140501,-0.054348023181369554
3.7337133673437934,-0.040654765908203494
3.735714285547086,-0.022937229781961332
3.7377152037503785,-0.06629045751996254
3.739716121953671,-0.09210405014182721
3.7417170401569635,-0.09310450924347324
3.7437179583602562,-0.13687775502423943
3.7457188765635485,-0.19537031971003088
3.7477197947668413,-0.19411974583297287
3.7497207129701335,-0.18057365027806405
3.7517216311734263,-0.14277852866031593
3.7537225493767186,-0.12345910317540487
3.7557234675800113,-0.1143577044034827
3.7577243857833036,-0.14107988612072075
3.759725303986596,-0.15372353718751286
3.7617262221898886,-0.12079175842498546
3.763727140393181,-0.10650642435252877
3.7657280585964736,-0.10650642435252877
3.767728976799766,-0.22778165999120364
3.7697298950030587,-0.34100394891849245
3.771730813206351,-0.33850280116437703
3.7737317314096437,-0.34895378326808174
3.775732649612936,-0.37296480170759017
3.7777335678162287,-0.36472400557434187
3.779734486019521,-0.3514755300865212
3.7817354042228133,-0.36648241661121395
3.783736322426106,-0.36607511693014505
3.7857372406293983,-0.34356478714310595
3.787738158832691,-0.33722355245345165
3.7897390770359833,-0.33722355245345165
3.791739995239276,-0.33722355245345165
3.7937409134425684,-0.33722355245345165
3.795741831645861,-0.33722355245345165
3.7977427498491534,-0.33722355245345165
3.799743668052446,-0.33722355245345165
3.8017445862557384,0.08722719046709582
3.803745504459031,0.2984881511880735
3.8057464226623234,-0.17923106984797832
3.8077473408656157,-0.2650950464006237
3.8097482590689085,-0.04672560786818736
3.8117491772722008,0.06568633887119446
3.8137500954754935,0.1405157288907657
3.8157510136787858,0.11453555285436634
3.8177519318820785,0.252201507452247
3.819752850085371,0.5634554501866149
3.8217537682886635,0.6279783779504091
3.823754686491956,0.6284793097420629
3.8257556046952486,0.6334816052502943
3.827756522898541,0.6354256419464022
3.829757441101833,0.6329244941922869
3.831758359305126,0.6316155953130078
3.833759277508418,0.6285721615850481
3.835760195711711,0.5293599673384595
3.837761113915003,0.45490176232892554
3.839762032118296,0.4307240007058042
3.841762950321588,0.4170406430776725
3.843763868524881,0.40932877083581487
3.8457647867281732,0.32915032660338506
3.847765704931466,0.26510474921076543
3.8497666231347583,0.26144566268159697
3.851767541338051,0.2679947476523069
3.8537684595413433,0.2825755127077799
3.8557693777446356,0.2705850279739146
3.8577702959479283,0.2550580996038848
3.8597712141512206,0.24206602654778675
3.8617721323545133,0.20700636053866772
3.8637730505578056,0.14822938831695454
3.8657739687610984,0.11660133916093773
3.8677748869643906,0.08795518012683923
3.8697758051676834,0.019590474847668293
3.8717767233709757,0.015000472733104564
3.8737776415742684,0.10437481914683833
3.8757785597775607,0.14129318008457714
3.8777794779808534,0.15655968764479566
3.8797803961841457,0.15100158152453913
3.881781314387438,0.11323787868166868
3.8837822325907307,0.009078969988051133
3.885783150794023,0.02572993233902965
3.8877840689973158,0.11210290144783586
3.889784987200608,0.021167061243124174
3.891785905403901,-0.023219328016553575
3.893786823607193,0.10606360123654468
3.895787741810486,0.15788327510180866
3.897788660013778,0.14794082440222045
3.899789578217071,0.20646534249969317
3.901790496420363,0.2728967261527565
3.9037914146236554,0.32536266276234116
3.905792332826948,0.3316817991210961
3.9077932510302404,0.2877491901432052
3.909794169233533,0.311757680131472
3.9117950874368255,0.3405802324233028
3.913796005640118,0.23703271540289994
3.9157969238434105,0.1258621400988924
3.9177978420467032,0.0033059001472078853
3.9197987602499955,-0.18126990905601342
3.9217996784532883,-0.3881430349946575
3.9238005966565805,-0.39564647825700394
3.9258015148598733,-0.40557616358499826
3.9278024330631656,-0.420583050109691
3.929803351266458,-0.4229683281269488
3.9318042694697506,-0.41796603261871745
3.933805187673043,-0.41296373711048656
3.9358061058763356,-0.4110337452309669
3.937807024079628,-0.4185371884933133
3.9398079422829206,-0.4218903884537903
3.941808860486213,-0.4218903884537903
3.9438097786895057,-0.4240427565959616
3.945810696892798,-0.42612373025380723
3.9478116150960907,-0.42612373025380723
3.949812533299383,-0.4415823917120997
3.9518134515026753,-0.4740973125156006
3.953814369705968,-0.48429010407434514
3.9558152879092603,-0.48321563304527226
3.957816206112553,-0.4310098581048213
3.9598171243158453,-0.440628940185976
3.961818042519138,-0.5438581293104003
3.9638189607224303,-0.5707631034879487
3.965819878925723,-0.5611786865676393
3.9678207971290154,-0.1935099667127156
3.969821715332308,0.05270319209058383
3.9718226335356004,0.040912066964039484
3.973823551738893,-0.007426178928474414
3.9758244699421854,-0.07745831604370723
3.9778253881454777,-0.020478562024666358
3.9798263063487704,0.027994094820417037
3.9818272245520627,0.02226069458406077
3.9838281427553555,0.04156573113438422
3.9858290609586478,0.08137032188791393
3.9878299791619405,0.18663640227966827
3.9898308973652328,0.24725527974346018
3.9918318155685255,0.026201459189235887
3.993832733771818,-0.08018919686914439
3.9958336519751105,-0.058393480726133484
3.997834570178403,0.03610522848668474
3.9998354883816956,0.1268850709070457
4.001836406584988,-0.0369401069875166
4.003837324788281,-0.06718827542133321
4.005838242991572,0.10760347339505816
4.007839161194865,0.1403771429349484
4.009840079398158,0.1130173788125286
4.011840997601451,0.10438360916130018
4.0138419158047425,0.11233305637812141
4.015842834008035,0.15604542328082016
4.017843752211328,0.10900332746687336
4.019844670414621,0.007331671262044148
4.0218455886179125,0.05023657117725899
4.023846506821205,0.10860618798451871
4.025847425024498,0.18244959786793413
4.02784834322779,0.11864622544284376
4.029849261431083,-0.059352123058435624
4.031850179634375,0.06228953824387773
4.033851097837668,0.18438869144019543
4.03585201604096,0.042785249361093514
4.037852934244253,-0.14031522388424883
4.039853852447545,-0.3704208172629519
4.041854770650838,-0.4218903884537903
4.04385568885413,-0.40052120001455477
4.045856607057423,-0.14540412909475514
4.047857525260715,0.017738119593202373
4.049858443464007,0.03774730162612416
4.0518593616673,0.05076684660356179
4.053860279870593,0.06074100718408226
4.0558611980738855,0.06574330269231499
4.057862116277177,0.1541151366686907
4.05986303448047,0.42502893024606303
4.061863952683763,0.42782471114807397
4.0638648708870555,0.26696141875179147
4.065865789090347,0.230365875048689
4.06786670729364,0.19397435078649528
4.069867625496933,0.1271937057516066
4.0718685437002256,-0.010880535008481962
4.073869461903517,-0.20888806554255224
4.07587038010681,-0.2008546255208909
4.077871298310103,-0.15745887319931895
4.079872216513395,-0.11827422505152396
4.0818731347166874,-0.0864650562815874
4.08387405291998,-0.06312101057650765
4.085874971123273,-0.20863623417851684
4.087875889326565,-0.375844457268736
4.0898768075298575,-0.22452501814473724
4.09187772573315,-0.14888607320730984
4.093878643936443,-0.1926561589043343
4.095879562139735,-0.19845335201807968
4.0978804803430275,-0.1876361123084601
4.09988139854632,-0.18430124863630593
4.101882316749612,-0.16176097608057027
4.103883234952905,-0.09652270549403574
4.105884153156198,-0.024769980813260095
4.10788507135949,0.051014796136445106
4.109885989562782,0.017408586581764918
4.111886907766075,-0.01530857357855342
4.113887825969368,-0.015878635744733804
4.11588874417266,-0.013231781354702932
4.117889662375952,-0.0078446938843022
4.119890580579245,0.009462861641483244
4.121891498782538,0.027151397822372192
4.1238924169858295,0.03521065169674342
4.125893335189122,0.05788037900538978
4.127894253392415,0.09754143624922418
4.129895171595708,0.17587372556781766
4.131896089799,0.2512678392561003
4.133897008002292,0.15331379812216217
4.135897926205585,0.1009239722443489
4.137898844408878,0.12142580459247909
4.13989976261217,0.06363291294639639
4.141900680815462,-0.02899292554768773
4.143901599018755,-0.04353613805807521
4.145902517222048,-0.04258475778770987
4.14790343542534,-0.006734973312067627
4.149904353628632,0.007600492952941296
4.151905271831925,0.008434208870980009
4.153906190035217,0.015032151597170307
4.15590710823851,-0.004797373823577589
4.1579080264418025,-0.11509798978007912
4.159908944645095,-0.058834074146458915
4.161909862848387,0.1411952174889064
4.16391078105168,0.0888061497119097
4.1659116992549725,0.003389466805945318
4.167912617458265,-0.006114894659694281
4.169913535661557,-0.11803546316952213
4.17191445386485,-0.3506422043023416
4.173915372068143,-0.4423408118078853
4.175916290271434,-0.48593533729753646
4.177917208474727,-0.46467558138755316
4.17991812667802,-0.45438541243379393
4.181919044881313,-0.4618888556961429
4.1839199630846045,-0.47249339446120386
4.185920881287897,-0.48449890368095916
4.18792179949119,-0.4597683893516458
4.189922717694483,-0.31357112765812606
4.1919236358977745,0.11080350820942475
4.193924554101067,0.21323600179132496
4.19592547230436,0.11081863301538808
4.197926390507652,0.18549580711914515
4.1999273087109446,0.24413822219525239
4.201928226914237,0.1941152671129387
4.20392914511753,0.09739329687420328
4.205930063320822,-0.04016982960209803
4.207930981524115,0.05046546824762166
4.209931899727407,0.19865379107351466
4.2119328179307,0.42938467139068637
4.213933736133992,0.5532432754804808
4.215934654337285,0.549491553849307
4.217935572540577,0.539672178851601
4.219936490743869,0.5226873975908035
4.221937408947162,0.43621914666280426
4.223938327150455,0.3611666564180098
4.225939245353747,0.3048908319504069
4.227940163557039,0.12173179362056086
4.229941081760332,-0.11962896465166573
4.231941999963625,-0.12132312065258805
4.2339429181669175,-0.12327675464003524
4.235943836370209,-0.1297797388007348
4.237944754573502,-0.12719440017384365
4.239945672776795,-0.11874607887105298
4.2419465909800875,-0.05571054920173635
4.243947509183379,0.002967264013949533
4.245948427386672,0.028812457473151643
4.247949345589965,0.033882636261546306
4.249950263793257,0.02054318157293522
4.251951181996549,-0.09056380192264157
4.253952100199842,-0.20030531713877497
4.255953018403135,-0.19030072612230964
4.257953936606427,-0.14996448104100257
4.2599548548097195,-0.07292913021423952
4.261955773013012,-0.0669389119036291
4.263956691216305,-0.0838365948659967
4.265957609419597,-0.10690273526505945
4.2679585276228895,-0.12288560649804747
4.269959445826182,-0.1270541860882402
4.271960364029474,-0.23304066353593955
4.273961282232767,-0.38644439245503476
4.27596220043606,-0.3880236540536548
4.277963118639352,-0.3865372442980483
4.279964036842644,-0.3815349487898192
4.281964955045937,-0.24547890916011583
4.28396587324923,-0.023710474961800676
4.285966791452522,0.14743899118350134
4.287967709655814,0.2863691616744011
4.289968627859107,0.32807661253523923
4.2919695460624,0.3385590556360851
4.2939704642656915,0.32100554594356734
4.295971382468984,0.13383105199098344
4.297972300672277,-0.0778707989309112
4.29997321887557,-0.23419253356314135
4.301974137078862,-0.30006564936610614
4.303975055282154,-0.255044989792012
4.305975973485447,-0.2390432620923158
4.30797689168874,-0.23066318819456755
4.309977809892032,-0.1973145514730399
4.311978728095324,-0.1317502265680779
4.313979646298617,-0.011695134370493632
4.31598056450191,0.026617408693896172
4.317981482705202,0.026283922326680864
4.319982400908494,0.022660827807429174
4.321983319111787,0.021246514776979364
4.323984237315079,0.025248351183563722
4.325985155518372,0.03586763700604678
4.327986073721664,0.050874523530740845
4.329986991924957,0.3613609430476371
4.331987910128249,0.6279783779504091
4.333988828331542,0.6279783779504091
4.3359897465348345,0.48216743293244324
4.337990664738127,0.20370631630756386
4.339991582941419,0.07629252048536006
4.341992501144712,-0.006849672647540217
4.3439934193480045,-0.005599098770482369
4.345994337551296,0.06592120370242582
4.347995255754589,0.2247440860887716
4.349996173957882,0.2632828677404164
4.351997092161175,0.2635504437897933
4.353998010364466,0.2808202735205845
4.355998928567759,0.30156618142366054
4.357999846771052,0.32827486636939585
4.360000764974345,0.3454467864512203
4.3620016831776365,0.35804185192730065
4.364002601380929,0.289077390965392
4.366003519584222,0.23401857171982543
4.368004437787514,0.21631814145993755
4.3700053559908065,0.21731487328333166
4.372006274194099,0.23087878994988575
4.374007192397392,0.15402784936551606
4.376008110600684,0.08504556229028903
4.378009028803977,0.08004326678205642
4.380009947007269,0.06565167698408403
4.382010865210562,0.042605386964018166
4.384011783413854,0.16330679152494143
4.386012701617147,0.27701011542038156
4.388013619820439,0.15474812814563588
4.390014538023732,0.12047243242949113
4.392015456227024,0.19697017566264874
4.394016374430317,0.1679281437440857
4.396017292633609,0.1126181621811031
4.398018210836901,0.20287337258546534
4.400019129040194,0.18357397683854715
4.402020047243487,-0.02632234268684086
4.4040209654467795,-0.06906352852856423
4.406021883650071,-0.030379109931592208
4.408022801853364,-0.05819362075675383
4.410023720056657,-0.043020557769073875
4.4120246382599495,0.08216846929219002
4.414025556463241,-0.09775302321389634
4.416026474666534,-0.48556256445740853
4.418027392869827,-0.5234905916541966
4.420028311073119,-0.520344552738397
4.422029229276411,-0.5053376662137029
4.424030147479704,-0.4980905408540951
4.426031065682997,-0.4980905408540951
4.428031983886289,-0.320737278581417
4.4300329020895814,-0.11345829345569058
4.432033820292874,0.042382451223825
4.434034738496167,0.1403106047160596
4.436035656699459,0.16435240651253957
4.4380365749027515,0.014146532279103785
4.440037493106044,-0.19547477803347169
4.442038411309336,-0.4111987718258535
4.444039329512629,-0.5475335620514452
4.4460402477159215,-0.5437818404202707
4.448041165919214,-0.5550931845801532
4.450042084122506,-0.5738517927360125
4.452043002325799,-0.5742906932543999
4.454043920529092,-0.5728698259762073
4.456044838732384,-0.5678675304679747
4.458045756935676,-0.10129638259885654
4.460046675138969,0.6840640121934678
4.462047593342262,0.5026377531099859
4.4640485115455535,0.28072986381380693
4.466049429748846,0.3212029820167698
4.468050347952139,0.31237496358994177
4.470051266155432,0.25689495886228486
4.4720521843587235,0.37843709921621393
4.474053102562016,0.5179114911499689
4.476054020765309,0.5179114911499689
4.478054938968602,0.5031855009570312
4.480055857171894,0.4694200062764844
4.482056775375186,0.46262114464631976
4.484057693578479,0.4666319151168037
4.486058611781772,0.49872997796128815
4.488059529985064,0.5015069953232691
4.490060448188356,0.45180470020943186
4.492061366391649,0.36975363627292823
4.494062284594941,0.271471355934939
4.496063202798234,0.3721510684584325
4.498064121001526,0.4206759487846641
4.500065039204819,0.32163049772168306
4.502065957408111,0.3034026665927356
4.504066875611404,0.34175359882251943
4.5060677938146965,0.2674997458942976
4.508068712017989,0.17270534870556942
4.510069630221281,0.048791342830260764
4.512070548424574,0.04093002426528691
4.5140714666278665,0.14433461855686947
4.516072384831158,0.189480867772578
4.518073303034451,0.2035689111853548
4.520074221237744,0.0914758060050409
4.522075139441037,0.06140930637344988
4.524076057644328,0.13881982936329584
4.526076975847621,0.10856126686477541
4.528077894050914,0.03679342449947687
4.530078812254207,-0.10952371911632891
4.5320797304574985,-0.20046800293092343
4.534080648660791,-0.19088026987347995
4.536081566864084,-0.2478602858394935
4.538082485067376,-0.3387353209056563
4.5400834032706685,-0.33903065218782413
4.542084321473961,-0.33757057646332345
4.544085239677254,-0.3388211503403813
4.546086157880546,-0.3678687570486209
4.5480870760838386,-0.4166411382538767
4.550087994287131,-0.4241223438899623
4.552088912490424,-0.42362492330245094
4.554089830693716,-0.41111918453187807
4.556090748897009,-0.4074944514506924
4.558091667100301,-0.412496746958925
4.560092585303594,-0.35738781266950315
4.562093503506886,-0.28418704789181154
4.564094421710179,-0.17922221381075676
4.566095339913471,-0.13485840122583892
4.568096258116763,-0.17096587971252053
4.570097176320056,-0.10720759163194016
4.572098094523349,-0.012333513298886323
4.574099012726641,-0.014590959476959986
4.576099930929933,-0.02737851289423432
4.578100849133226,-0.05955994733053127
4.580101767336519,-0.029295630358529
4.5821026855398115,0.03323306349436306
4.584103603743103,-0.25001928625613273
4.586104521946396,-0.3522922361711099
4.588105440149689,0.05589507730067644
4.590106358352981,0.300561868357465
4.592107276556273,0.42762017426654175
4.594108194759566,0.4165086956493791
4.596109112962859,0.3905382692422713
4.598110031166151,0.3742808088405266
4.600110949369443,0.40298197673960556
4.602111867572736,0.47593211956797954
4.604112785776029,0.4342168685645522
4.606113703979321,0.3650594114157475
4.6081146221826135,0.29002497879227696
4.610115540385906,0.18726841902607172
4.612116458589198,0.04720414479565571
4.614117376792491,0.03437966671526704
4.6161182949957835,0.06738498569798745
4.618119213199076,0.0923964632391443
4.620120131402368,0.10752585177518215
4.622121049605661,0.10419098810302785
4.624121967808954,0.1030439947483095
4.626122886012246,0.1030439947483095
4.628123804215538,0.11268342053347469
4.630124722418831,0.118622037147597
4.632125640622124,0.11361974163936561
4.634126558825416,0.11585052667415796
4.636127477028708,0.12335396993650372
4.638128395232001,0.11756399429793729
4.640129313435294,0.10933548737921317
4.6421302316385855,0.09808032248569465
4.644131149841878,0.05945281326257068
4.646132068045171,-0.00647029539947841
4.648132986248464,-0.019695663819992548
4.650133904451756,-0.026704161057754527
4.652134822655048,-0.0818723343771206
4.654135740858341,-0.1134914968426256
4.656136659061634,-0.11299126729180248
4.658137577264926,-0.13538939459965504
4.660138495468218,-0.16487804756215269
4.662139413671511,-0.15987575205392007
4.664140331874803,-0.1589043189065591
4.666141250078096,-0.16557404625086758
4.668142168281388,-0.14584829641936542
4.670143086484681,-0.1120828017388037
4.672144004687973,-0.19119549797913504
4.674144922891266,-0.21071486703349812
4.676145841094558,-0.054393132401267974
4.678146759297851,0.03240480944942925
4.680147677501143,0.06783773596605225
4.682148595704436,0.049925718143430275
4.6841495139077285,0.0327635591472194
4.68615043211102,0.04906733709996636
4.688151350314313,0.08917098874803941
4.690152268517606,0.1533207968860233
4.6921531867208985,-0.0042892182643405885
4.69415410492419,-0.19861752283564227
4.696155023127483,-0.25821476394446324
4.698155941330776,-0.31781200505329077
4.700156859534069,-0.37740924616212734
4.70215777773736,-0.3863928947942234
4.704158695940653,-0.37661926298388215
4.706159614143946,-0.37328439931172797
4.708160532347238,-0.3710902868535871
4.7101614505505305,-0.3710902868535871
4.712162368753823,-0.28336636244246816
4.714163286957116,-0.14830438372022137
4.716164205160408,-0.15274756176812015
4.7181651233637005,-0.14391186733224665
4.720166041566993,-0.08066855983530496
4.722166959770286,-0.04357803842755281
4.724167877973578,-0.026070004148750825
4.726168796176871,-0.11192362715083592
4.728169714380163,-0.2031634373145405
4.730170632583456,-0.2560448469729864
4.732171550786748,-0.27685057074668007
4.734172468990041,-0.2648212410721236
4.736173387193333,-0.3479768102208749
4.738174305396625,-0.44469331858642525
4.740175223599918,-0.45970020511111936
4.742176141803211,-0.4142909722780568
4.744177060006503,-0.28423128906404127
4.746177978209795,-0.24940974121620796
4.748178896413088,-0.2501105775639606
4.750179814616381,-0.22609955912445007
4.7521807328196735,-0.20796364351738694
4.754181651022965,-0.20129391617308146
4.756182569226258,-0.1466732343270291
4.758183487429551,-0.06580279027726743
4.760184405632843,-0.11453245183210425
4.762185323836135,-0.16054514361787764
4.764186242039428,-0.18105455520162617
4.766187160242721,-0.12183505421720242
4.768188078446013,-0.0021134483868868736
4.770188996649305,0.018940511946684002
4.772189914852598,0.028015219064860153
4.774190833055891,0.04594011130269382
4.776191751259183,0.06631160889398213
4.7781926694624755,0.08922067238095488
4.780193587665768,0.11016196885973129
4.78219450586906,0.12808506672442
4.784195424072353,0.12469065191526207
4.7861963422756455,0.1670934747174475
4.788197260478938,0.27453563609781695
4.79019817868223,0.2172110316714546
4.792199096885523,0.09700840201964467
4.7942000150888155,0.011278585190456991
4.796200933292108,-0.01126514004928092
4.7982018514954,0.09132955877901872
4.800202769698693,0.13381077060707258
4.802203687901986,0.14291018434109337
4.804204606105278,0.03107255827584121
4.80620552430857,-0.013497886899739742
4.808206442511863,0.15372170580399436
4.810207360715156,0.15375414264223553
4.8122082789184475,0.02521301342184734
4.81420919712174,-0.1521292554378536
4.816210115325033,-0.29073989115139015
4.818211033528326,-0.22070775403615106
4.8202119517316175,-0.1794876803509814
4.82221286993491,-0.1685451589267224
4.824213788138203,-0.05580187302067541
4.826214706341496,0.06711082567638049
4.828215624544788,0.049241514499761885
4.83021654274808,0.015321006658327252
4.832217460951373,-0.04170516213552522
4.834218379154665,-0.047676340123251615
4.836219297357958,-0.03247182527133852
4.83822021556125,0.02441634916365132
4.840221133764543,-0.044294558153937125
4.842222051967835,-0.3654419297823323
4.844222970171128,-0.4811571736540273
4.84622388837442,-0.4811571736540273
4.848224806577713,-0.4811571736540273
4.850225724781005,-0.4811571736540273
4.852226642984298,-0.4811571736540273
4.8542275611875905,-0.4811571736540273
4.856228479390882,-0.4811571736540273
4.858229397594175,-0.44962539001171187
4.860230315797468,-0.4173404530798425
4.8622312340007605,-0.4035841404322027
4.864232152204052,-0.3964903376536887
4.866233070407345,-0.3964903376536887
4.868233988610638,-0.3964903376536887
4.870234906813931,-0.39450533690918455
4.872235825017222,-0.374496154876268
4.874236743220515,-0.36160652445227687
4.876237661423808,-0.3591053766981612
4.878238579627101,-0.35839026145353625
4.8802394978303925,-0.3556983382740601
4.882240416033685,-0.230640950568276
4.884241334236978,-0.135368639481795
4.88624225244027,-0.10085280047501394
4.8882431706435625,-0.07911640696206812
4.890244088846855,-0.06468121135259663
4.892245007050148,-0.08140725030780194
4.89424592525344,-0.0895839418853166
4.896246843456733,-0.06676394618586112
4.898247761660025,-0.07005490898734645
4.900248679863318,-0.09396784320121165
4.90224959806661,-0.1174729820345885
4.904250516269903,-0.13901646848360766
4.906251434473195,-0.1515222072541893
4.908252352676487,-0.1427718963858164
4.91025327087978,-0.11109069150035111
4.912254189083073,-0.19905181725829296
4.914255107286365,-0.3097495504038048
4.916256025489657,-0.3322598801908418
4.91825694369295,-0.3658679558854877
4.920257861896243,-0.41589091096780134
4.922258780099535,-0.4303570720538241
4.924259698302827,-0.4303570720538241
4.92626061650612,-0.4303570720538241
4.928261534709413,-0.42872787332956874
4.930262452912705,-0.42372557782133957
4.932263371115997,-0.4218903884537903
4.93426428931929,-0.4218903884537903
4.936265207522583,-0.4218903884537903
4.938266125725875,-0.4218903884537903
4.940267043929167,-0.4218903884537903
4.94226796213246,-0.4246689213355276
4.944268880335753,-0.429671216843759
4.946269798539045,-0.3195684377342536
4.948270716742337,-0.21361356112386398
4.95027163494563,-0.21694842479601822
4.952272553148922,-0.24617451771507326
4.954273471352215,-0.303700916059749
4.9562743895555075,-0.29314428572457546
4.9582753077588,-0.26751756719010406
4.960276225962092,-0.27668844228852413
4.962277144165385,-0.2831908022351545
4.9642780623686775,-0.2856919499892709
4.96627898057197,-0.3288949762165679
4.968279898775262,-0.3880236540536548
4.970280816978555,-0.3880236540536548
4.972281735181848,-0.3880236540536548
4.97428265338514,-0.3880236540536548
4.976283571588432,-0.3880236540536548
4.978284489791725,-0.3880236540536548
4.980285407995018,-0.3950565959602925
4.9822863261983095,-0.3174753699288279
4.984287244401602,0.02268072463099413
4.986288162604895,0.12759394401099078
4.988289080808188,0.04172120445301908
4.9902899990114795,0.11745885324041716
4.992290917214772,0.2021096937552027
4.994291835418065,0.19960854600108646
4.996292753621358,0.19634446374586467
4.99829367182465,0.1922354352926764
5.000294590027942,0.2215566779856628
5.002295508231235,0.2444873379224053
5.004296426434527,0.10732182980701432
5.00629734463782,0.014623246794206568
5.008298262841112,-0.010483512566154651
5.010299181044405,-0.027470807403250697
5.012300099247697,-0.04024590569195252
5.01430101745099,0.014779344898592561
5.016301935654282,0.03149033583597849
5.018302853857575,-0.033539505771029265
5.020303772060867,-0.03964385122087466
5.02230469026416,-0.010630537273125129
5.0243056084674524,-0.01245402262686246
5.026306526670744,-0.03360738905118421
5.028307444874037,-0.10864182167465464
5.03030836307733,-0.039523768039014584
5.0323092812806225,0.14806231351971078
5.034310199483914,0.13801548165326938
5.036311117687207,0.11119825668902383
5.0383120358905,0.1680351890838696
5.0403129540937925,0.18256535966175413
5.042313872297084,0.14962120963077585
5.044314790500377,0.179436685978699
5.04631570870367,0.22067721437870225
5.048316626906963,0.19383156181785355
5.050317545110254,0.19051826876904976
5.052318463313547,0.22346887337488353
5.05431938151684,0.1950205914596368
5.056320299720132,0.14036065442317003
5.0583212179234245,0.08325111403751373
5.060322136126717,0.05469142537224336
5.06232305433001,0.0879686007293825
5.064323972533302,0.1346975001343924
5.0663248907365945,0.18955600754132973
5.068325808939887,0.15879595992724804
5.07032672714318,0.04884118235433055
5.072327645346472,-0.294035672932898
5.074328563549765,-0.44532697389483394
5.076329481753057,-0.43707318630625214
5.078330399956349,-0.42881939871767216
5.080331318159642,-0.4218903884537903
5.082332236362935,-0.4218903884537903
5.084333154566227,-0.4218903884537903
5.086334072769519,-0.4218903884537903
5.088334990972812,-0.17753164704059793
5.090335909176105,0.1197971201355289
5.092336827379397,0.21984303030015617
5.094337745582689,0.24179976023329197
5.096338663785982,0.1417538500686384
5.098339581989275,0.11151067834834327
5.100340500192567,0.11206856967394274
5.102341418395859,0.2204516390189557
5.104342336599152,0.26185809912426405
5.106343254802445,0.15597617753333914
5.108344173005737,0.11884558381163024
5.110345091209029,0.12384787931986163
5.112346009412322,0.12305083597846944
5.114346927615615,0.08742908470543365
5.116347845818907,-0.060138632787364865
5.118348764022199,-0.04221393561636855
5.120349682225492,0.11535837289291939
5.122350600428785,0.14540374677958445
5.124351518632077,0.16739207755008323
5.1263524368353695,0.26702112975571735
5.128353355038662,0.19700647063432242
5.130354273241954,-0.0684486776690374
5.132355191445247,-0.13962890051362098
5.1343561096485395,-0.15966312913617053
5.136357027851832,-0.2513718801204122
5.138357946055124,-0.29016756487543194
5.140358864258417,-0.2451469053013497
5.1423597824617095,-0.25281147382068486
5.144360700665002,-0.2836399242589601
5.146361618868294,-0.30431607902630736
5.148362537071587,-0.3201441191608659
5.15036345527488,-0.3251464146690973
5.1523643734781714,-0.3369361018739427
5.154365291681464,-0.35294344750028717
5.156366209884757,-0.28789269472188755
5.15836712808805,-0.23241488893018603
5.1603680462913415,-0.23074745709410954
5.162368964494634,-0.2452596539678597
5.164369882697927,-0.27360599518117823
5.16637080090122,-0.307598352663026
5.1683717191045115,-0.33722355245345165
5.170372637307804,-0.33722355245345165
5.172373555511097,-0.34299363126851756
5.174374473714389,-0.3554993700390937
5.176375391917682,-0.35839026145353625
5.178376310120974,-0.35756356794378974
5.180377228324267,-0.3467252610092857
5.182378146527559,-0.33892609633099907
5.184379064730852,-0.336008090617864
5.186379982934144,-0.33510688155344315
5.188380901137437,-0.33510688155344315
5.190381819340729,-0.3987966135776502
5.192382737544022,-0.41342353765352385
5.194383655747314,-0.31659338888704525
5.196384573950606,-0.2326960081955532
5.198385492153899,-0.1569469619280497
5.200386410357192,-0.21890533590735228
5.2023873285604845,-0.2899476464557204
5.204388246763776,-0.3517259959823503
5.206389164967069,-0.4015773702220072
5.208390083170362,-0.44109550473703496
5.2103910013736545,-0.4261998063436516
5.212391919576946,-0.3573155504737892
5.214392837780239,-0.04113597576385497
5.216393755983532,0.05707646431239011
5.218394674186825,-0.1025312609899024
5.220395592390116,-0.08951235462899765
5.222396510593409,-0.023452504727779044
5.224397428796702,0.044850897910350684
5.226398346999994,0.10239354418006041
5.2283992652032865,0.14241190824592187
5.230400183406579,0.22649558166786066
5.232401101609872,0.3305735145050709
5.234402019813164,0.3214461393246454
5.2364029380164565,0.3147110847491561
5.238403856219749,0.3147110847491561
5.240404774423042,0.3147110847491561
5.242405692626334,0.3147110847491561
5.244406610829627,0.3238917131924346
5.246407529032919,0.32995556275446825
5.248408447236211,0.3224521194921226
5.250409365439504,0.3176125097760403
5.252410283642797,0.3151113620219246
5.254411201846089,0.3012655136685337
5.256412120049381,0.27264943394998165
5.258413038252674,0.1711028351328584
5.260413956455967,0.03724754023579124
5.262414874659259,-0.13533165479819087
5.264415792862551,-0.12201892427439226
5.266416711065844,-0.07113982058098933
5.268417629269137,-0.2924913968202272
5.2704185474724285,-0.4303570720538241
5.272419465675721,-0.4303570720538241
5.274420383879014,-0.42350788316421695
5.276421302082307,-0.4135032921477516
5.278422220285599,-0.41342370485375646
5.280423138488891,-0.41267464796904185
5.282424056692184,-0.4101735002149262
5.284424974895477,-0.41678041601838633
5.286425893098769,-0.4292861547889624
5.288426811302061,-0.08121385541259885
5.290427729505354,0.19503676313464013
5.292428647708647,0.10082686439628274
5.294429565911939,0.10016012574216504
5.296430484115231,0.1826980016280042
5.298431402318524,0.25812077343014384
5.300432320521816,0.32955926484640086
5.302433238725109,0.3855849745385922
5.3044341569284015,0.4220839676565886
5.306435075131694,0.4348676117331831
5.308435993334986,0.33902110172846767
5.310436911538279,0.19291326489321015
5.3124378297415715,-0.17475545496189165
5.314438747944864,-0.27483748036879485
5.316439666148156,0.07317936427514704
5.318440584351449,0.2455273883160365
5.320441502554742,0.33571163019300765
5.322442420758033,0.38047011242630013
5.324443338961326,0.4243625680367529
5.326444257164619,0.46742326387369193
5.328445175367912,0.33267422036539585
5.3304460935712035,0.08117723172140168
5.332447011774496,-0.17031975692276424
5.334447929977789,-0.3684966773902679
5.336448848181082,-0.37600012065261496
5.3384497663843735,-0.3769259081460625
5.340450684587666,-0.37192361263783114
5.342451602790959,-0.3710902868535871
5.344452520994251,-0.37038570522140224
5.346453439197544,-0.3653834097131709
5.348454357400836,-0.36561358865170485
5.350455275604129,-0.3722833159960134
5.352456193807421,-0.36509158963516863
5.354457112010714,-0.35415691965351936
5.356458030214006,-0.35415691965351936
5.358458948417299,-0.35230300386384994
5.360459866620591,-0.3473007083556195
5.362460784823884,-0.3422984128473877
5.364461703027176,-0.3372961173391564
5.366462621230468,-0.3322938218309272
5.368463539433761,-0.32582618379197315
5.370464457637054,-0.3158215927755078
5.3724653758403464,-0.31482675160050305
5.374466294043638,-0.31982904710873217
5.376467212246931,-0.3202901852533839
5.378468130450224,-0.3202901852533839
5.3804690486535165,-0.3202901852533839
5.382469966856808,-0.3176755085651779
5.384470885060101,-0.3126732130569465
5.386471803263394,-0.3076709175487152
5.3884727214666865,-0.30335681805331616
5.390473639669978,-0.30335681805331616
5.392474557873271,-0.3078090249118386
5.394475476076564,-0.3178136159283013
5.396476394279856,-0.32405419609907177
5.398477312483148,-0.32875686885341776
5.400478230686441,-0.32875686885341776
5.402479148889734,-0.32875686885341776
5.404480067093026,-0.32875686885341776
5.4064809852963185,-0.3338200252335337
5.408481903499611,-0.34132346849588274
5.410482821702904,-0.3390002217518815
5.412483739906196,-0.3386725093648211
5.4144846581094885,-0.34367480487305246
5.416485576312781,-0.3456902360534855
5.418486494516073,-0.3456902360534855
5.420487412719366,-0.3456902360534855
5.422488330922659,-0.28341036953440935
5.424489249125951,0.010391119982379515
5.426490167329243,0.14799965344248056
5.428491085532536,0.14109452395660638
5.430492003735829,0.13116743187089208
5.432492921939121,0.11850416640191819
5.434493840142413,0.09228245607652341
5.436494758345706,0.06191595247769244
5.438495676548999,0.026311378566153953
5.4404965947522905,-0.013658076491328885
5.442497512955583,-0.04965569872590425
5.444498431158876,0.004869322313831859
5.446499349362169,0.030438144993235494
5.448500267565461,0.005426667452089751
5.450501185768753,-0.007828128203199891
5.452502103972046,-0.015331571465546867
5.454503022175339,-0.017325935421097505
5.456503940378631,-0.0409589727341918
5.458504858581923,-0.11880719658104244
5.460505776785216,-0.19665542042789302
5.462506694988509,-0.27450364427474366
5.464507613191801,-0.2664107576161736
5.466508531395093,-0.25360071448618515
5.468509449598386,-0.25860300999441654
5.470510367801678,-0.25844149460364796
5.472511286004971,-0.2534391990954166
5.4745122042082635,-0.24843690358718412
5.476513122411556,-0.2450076275368575
5.478514040614848,-0.2520108412483783
5.480514958818141,-0.2550660570169049
5.4825158770214335,-0.2530651388136123
5.484516795224726,-0.058117674711395284
5.486517713428018,0.20343218229503524
5.488518631631311,0.4805037723898504
5.4905195498346036,0.5466190962565265
5.492520468037895,0.23897792250035343
5.494521386241188,0.1352393959744258
5.496522304444481,0.1327382482203101
5.498523222647774,0.22947543367702405
5.5005241408510654,0.30012788352487885
5.502525059054358,0.2984604516888013
5.504525977257651,0.32953421825684237
5.506526895460944,0.3833088949703295
5.5085278136642355,0.2529115509574714
5.510528731867528,0.16401956596682088
5.512529650070821,0.3165895789679175
5.514530568274113,0.31266288232999595
5.5165314864774055,0.1600928693289393
5.518532404680698,0.2236366913141794
5.520533322883991,0.3352664540938801
5.522534241087283,0.45198668261925734
5.524535159290576,0.5032171017943581
5.526536077493868,0.4694516071137962
5.528536995697161,0.3446721897362879
5.530537913900453,0.19399488297077128
5.532538832103746,0.1504034506847437
5.534539750307038,0.08164705107624892
5.536540668510331,-0.03233382514702288
5.538541586713623,0.04257052572288322
5.540542504916916,0.21264857300279427
5.542543423120208,0.21734422334876669
5.5445443413235,0.2460401244416185
5.546545259526793,0.34858718236036146
5.548546177730086,0.4095167177911443
5.5505470959333785,0.44119792267661784
5.55254801413667,0.3095191842169538
5.554548932339963,0.1615238800857739
5.556549850543256,0.02500289850695947
5.5585507687465485,-0.02251081354496176
5.56055168694984,0.015631689705295493
5.562552605153133,0.0900466873971637
5.564553523356426,0.15919751227144507
5.566554441559718,0.13418603473029933
5.56855535976301,0.09621119147805468
5.570556277966303,0.041185940887495276
5.572557196169596,-0.152796049825499
5.574558114372888,-0.38398041887817347
5.5765590325761805,-0.3751192096921636
5.578559950779473,-0.3846568912065771
5.580560868982766,-0.427735483112769
5.582561787186058,-0.45062221716192047
5.5845627053893505,-0.4631845429857595
5.586563623592643,-0.4380904841826484
5.588564541795935,-0.4191834451232754
5.590565459999228,-0.4196003030822947
5.592566378202521,-0.4292680135675371
5.594567296405813,-0.44552547396928904
5.596568214609105,-0.4695865855879622
5.598569132812398,-0.4896238572540612
5.600570051015691,-0.4896238572540612
5.602570969218983,-0.48835748295834047
5.604571887422275,-0.48585633520422594
5.606572805625568,-0.3496050614772654
5.608573723828861,-0.1927750661113935
5.6105746420321525,-0.10868886066354172
5.612575560235445,-0.049209619745708144
5.614576478438738,-0.022530710368474205
5.616577396642031,-0.07072081688602916
5.6185783148453226,-0.13552360062480623
5.620579233048615,0.024549855638597462
5.622580151251908,0.16399498753780162
5.624581069455201,0.2652914715795134
5.626581987658493,0.35945201839287577
5.628582905861785,0.44991019550005973
5.630583824065078,0.4741664576158753
5.632584742268371,0.49034626467257003
5.634585660471663,0.4912752624098129
5.636586578674955,0.4536101073633214
5.638587496878248,0.3880800362054906
5.64058841508154,-0.029323251831176345
5.642589333284833,-0.3886327643730725
5.644590251488125,-0.32681868416419724
5.646591169691418,-0.16740566868073536
5.64859208789471,0.08842601588298371
5.650593006098003,0.13285645875992924
5.6525939243012955,0.14378098526295668
5.654594842504588,0.2738406684770063
5.65659576070788,0.32432101641947275
5.658596678911173,0.26729484762563516
5.6605975971144655,0.3689933645422161
5.662598515317757,0.522119669320265
5.66459943352105,0.521494382381736
5.666600351724343,0.5314493288729067
5.668601269927636,0.5612546729427854
5.670602188130927,0.5704414459933085
5.67260310633422,0.5687740141572308
5.674604024537513,0.12305369695941937
5.676604942740806,-0.11801085873140338
5.6786058609440975,0.24093163451463906
5.68060677914739,0.3986292651452571
5.682607697350683,0.40906262434814233
5.684608615553975,0.4640135042908493
5.6866095337572675,0.4972679515677887
5.68861045196056,0.4150873825039876
5.690611370163853,0.13648002143957094
5.692612288367145,-0.3387380518423223
5.694613206570438,-0.426319187284661
5.69661412477373,-0.4213168917764296
5.698615042977023,-0.4163145962681982
5.700615961180315,-0.41342370485375646
5.702616879383608,-0.41342370485375646
5.7046177975869,-0.418897672119084
5.706618715790193,-0.42612373025380723
5.708619633993485,-0.42612373025380723
5.710620552196778,-0.42612373025380723
5.71262147040007,-0.42612373025380723
5.714622388603362,-0.4212326228769001
5.716623306806655,-0.4137291796145531
5.718624225009948,-0.41342370485375646
5.7206251432132404,-0.41208944727785646
5.722626061416532,-0.4070871517696273
5.724626979619825,-0.40495702125372257
5.726627897823118,-0.40495702125372257
5.7286288160264105,-0.4005469488449659
5.730629734229702,-0.3964903376536887
5.732630652432995,-0.3964903376536887
5.734631570636288,-0.3964903376536887
5.73663248883958,-0.3964903376536887
5.738633407042872,-0.3964903376536887
5.740634325246165,-0.3964903376536887
5.742635243449458,-0.3964903376536887
5.74463616165275,-0.3964903376536887
5.746637079856042,-0.3964903376536887
5.748637998059335,-0.38922448587195935
5.750638916262628,-0.37955697045362097
5.75263983446592,-0.37955697045362097
5.7546407526692125,-0.31001932792240033
5.756641670872505,-0.10617578596197225
5.758642589075797,0.048265113648746194
5.76064350727909,0.17593733764295738
5.7626444254823825,0.12923821608639452
5.764645343685675,0.08893285541491969
5.766646261888967,0.08893285541491969
5.76864718009226,-0.06765904686983026
5.770648098295553,-0.3419515839045168
5.772649016498845,-0.375323628653604
5.774649934702137,-0.3739296806072062
5.77665085290543,-0.3664262373448572
5.778651771108723,-0.36015639713952385
5.780652689312015,-0.35515410163129246
5.782653607515307,-0.35415691965351936
5.7846545257186,-0.35415691965351936
5.786655443921893,-0.35415691965351936
5.7886563621251845,-0.352078286798437
5.790657280328477,-0.3470759912902056
5.79265819853177,-0.3348406152389517
5.794659116735063,-0.3202901852533839
5.796660034938355,-0.3202901852533839
5.798660953141647,-0.3202901852533839
5.80066187134494,-0.3202901852533839
5.802662789548233,-0.3202901852533839
5.804663707751525,-0.3202901852533839
5.806664625954817,-0.3202901852533839
5.80866554415811,-0.3202901852533839
5.810666462361402,-0.3202901852533839
5.812667380564695,-0.3231295790070041
5.814668298767987,-0.3281318745152368
5.81666921697128,-0.3410133121295594
5.818670135174572,-0.2996579419322689
5.820671053377865,-0.010310109061518302
5.8226719715811575,0.09813729445823915
5.82467288978445,0.018254738099807044
5.826673807987742,-0.061627818258572775
5.828674726191035,-0.12188953443576761
5.8306756443943275,-0.014585771744339504
5.832676562597619,0.04011736442541558
5.834677480800912,0.019830277086471892
5.836678399004205,0.10398403985864357
5.8386793172074976,0.2253740432328183
5.840680235410789,0.22345757936927602
5.842681153614082,0.20540211644389306
5.844682071817375,0.15524923160810566
5.846682990020668,-0.04269896058941158
5.8486839082239594,-0.3230548861187995
5.850684826427252,-0.3324740636438097
5.852685744630545,-0.3274717681355774
5.854686662833837,-0.3224694726273482
5.8566875810371295,-0.3202901852533839
5.858688499240422,-0.3202901852533839
5.860689417443715,-0.04555250555947166
5.862690335647007,0.2274553208910437
5.8646912538502995,0.3074920490227455
5.866692172053592,0.34776634085751745
5.868693090256885,0.34609890902144036
5.870694008460177,0.4696548389538613
5.87269492666347,0.6063160875649785
5.874695844866762,0.5716573258293756
5.876696763070055,0.5296334622748136
5.878697681273347,0.47696643670960115
5.88069859947664,0.44178308435439706
5.882699517679932,0.4119960180527338
5.884700435883224,0.3198704091095136
5.886701354086517,0.20468087052534534
5.88870227228981,0.0429399824258645
5.890703190493102,0.10592786375452157
5.892704108696394,0.2960150930672789
5.894705026899687,0.09009935545929493
5.89670594510298,-0.07395151483512041
5.8987068633062725,-0.04852317933493755
5.900707781509564,-0.026369236768836846
5.902708699712857,-0.006776912694930748
5.90470961791615,0.030845210594050654
5.906710536119442,0.022378526994008885
5.908711454322734,-0.21473028009622008
5.910712372526027,-0.33722355245345165
5.91271329072932,-0.33722355245345165
5.914714208932612,-0.33326759578105525
5.916715127135904,-0.3282653002728237
5.918716045339197,-0.323263004764591
5.92071696354249,-0.1964921494348591
5.922717881745782,0.10864787656711872
5.9247187999490745,0.1883632459192165
5.926719718152367,0.1775296763236449
5.928720636355659,0.17258693195241726
5.930721554558952,0.1532589402440373
5.9327224727622445,0.10446273858398036
5.934723390965537,0.02189357118118951
5.936724309168829,-0.08004904269693025
5.938725227372122,0.07204289059947311
5.940726145575415,0.1962841184079238
5.942727063778707,0.19107339392018285
5.944727981981999,0.1710589125698858
5.946728900185292,0.13930823135790882
5.948729818388585,0.10569404356716539
5.950730736591877,0.05288293230280572
5.952731654795169,-0.09051620559976303
5.954732572998462,-0.2223073025921043
5.956733491201755,-0.3415286788716497
5.9587344094050465,-0.3648871595270482
5.960735327608339,-0.3611980543698289
5.962736245811632,-0.3461911678451348
5.964737164014925,-0.3342039168869454
5.9667380822182166,-0.3267004736245997
5.968739000421509,-0.32274802815635123
5.970739918624802,-0.3202901852533839
5.972740836828095,-0.3202901852533839
5.974741755031387,-0.3202901852533839
5.976742673234679,-0.3202901852533839
5.978743591437972,-0.3234526097885383
5.980744509641264,-0.32845490529676746
5.982745427844557,-0.33580736678079115
5.984746346047849,-0.3115882509754336
5.986747264251142,-0.1906994428598422
5.988748182454434,-0.12482535172241799
5.990749100657727,-0.10314873785341544
5.992750018861019,-0.13177597539851088
5.994750937064312,-0.13675369247760255
5.996751855267604,0.013732030728290878
5.998752773470897,0.08663505739841415
6.0007536916741895,0.07441791259946451
6.002754609877481,0.09901835417822658
6.004755528080774,0.12486704143557714
6.006756446284067,0.06278855417842599
6.0087573644873595,0.043191722452803116
6.010758282690651,0.08754148592340871
6.012759200893944,0.20075889374149058
6.014760119097237,0.3391334319905768
6.01676103730053,0.23598223210224067
6.018761955503821,0.15644803587620826
6.020762873707114,0.12676049949040036
6.022763791910407,0.10892760249745903
6.0247647101137,0.09808929556295487
6.0267656283169915,0.09739953901495346
6.028766546520284,0.09780605842842893
6.030767464723577,0.09947349026450658
6.032768382926869,0.09562599078687328
6.0347693011301615,0.0872888316064877
6.036770219333454,0.10329211984137687
6.038771137536747,0.12334503792596019
6.040772055740039,0.14361749866984153
6.042772973943332,0.07836047599444673
6.044773892146624,-0.08197625897991656
6.046774810349917,0.0429114317255862
6.048775728553209,0.23186271479226794
6.050776646756502,0.256775332738407
6.052777564959794,0.2495275287310037
6.054778483163086,0.19320276876388875
6.056779401366379,0.1486105295271214
6.058780319569672,0.10959431820257237
6.060781237772964,0.1282058000199675
6.062782155976256,0.08612611815473992
6.064783074179549,-0.08599330707150021
6.066783992382842,0.033817952078558866
6.0687849105861345,0.32830725722772947
6.070785828789426,-0.07909065813170213
6.072786746992719,-0.37770080055752187
6.074787665196012,-0.17386387539009407
6.076788583399304,0.029973049777272553
6.078789501602596,0.23380997494475386
6.080790419805889,0.0895886269745525
6.082791338009182,-0.05681622552983723
6.084792256212474,0.08801213966079713
6.086793174415766,0.14317027894161571
6.088794092619059,0.09732673092893795
6.090795010822352,0.11632973510683808
6.092795929025644,0.14401243213628379
6.094796847228936,0.06585156482016863
6.096797765432229,0.06645425130805327
6.098798683635521,0.18891044534953494
6.100799601838814,0.2194958424340504
6.1028005200421065,0.21063404303134048
6.104801438245399,0.19079994134120315
6.106802356448691,0.15697926613681012
6.108803274651984,0.09273311749274171
6.1108041928552765,0.10589577524991478
6.112805111058569,0.16602753583844587
6.114806029261861,0.14798079506334438
6.116806947465154,0.13209948996187182
6.118807865668447,0.14215410393341943
6.120808783871739,-0.03898308941662032
6.122809702075031,-0.37993955125751877
6.124810620278324,-0.4303570720538241
6.126811538481617,-0.4303570720538241
6.1288124566849085,-0.4303570720538241
6.130813374888201,-0.4280209508946211
6.132814293091494,-0.4230186553863898
6.134815211294787,-0.4218903884537903
6.1368161294980785,-0.4218903884537903
6.138817047701371,-0.4218903884537903
6.140817965904664,-0.4218903884537903
6.142818884107957,-0.4218903884537903
6.144819802311249,-0.4218903884537903
6.146820720514541,-0.4218903884537903
6.148821638717834,-0.4218903884537903
6.150822556921126,-0.42033141381247907
6.152823475124419,-0.4153291183042477
6.154824393327711,-0.41342370485375646
6.156825311531004,-0.41342370485375646
6.158826229734296,-0.40878891537958745
6.160827147937589,-0.40495702125372257
6.162828066140881,-0.40495702125372257
6.164828984344174,-0.40495702125372257
6.166829902547466,-0.40495702125372257
6.168830820750759,-0.3964645888232742
6.1708317389540515,-0.3880236540536548
6.172832657157343,-0.3880236540536548
6.174833575360636,-0.3868637862837295
6.176834493563929,-0.38436263852961383
6.1788354117672215,-0.3818614907754982
6.180836329970513,-0.37955697045362097
6.182837248173806,-0.37955697045362097
6.184838166377099,-0.37955697045362097
6.186839084580392,-0.37955697045362097
6.188840002783683,-0.37955697045362097
6.190840920986976,-0.37955697045362097
6.192841839190269,-0.37955697045362097
6.194842757393562,-0.3803282649646015
