Time_s,Voltage_mV
0.0,1.656438017064381
0.002001054671379777,1.6342087427855911
0.004002109342759554,1.6480605698542754
0.00600316401413933,1.743201623775332
0.008004218685519107,1.779847586790855
0.010005273356898884,1.779847586790855
0.01200632802827866,1.779847586790855
0.014007382699658438,1.779847586790855
0.016008437371038214,1.779847586790855
0.01800949204241799,1.779847586790855
0.020010546713797768,1.779847586790855
0.022011601385177545,1.779847586790855
0.02401265605655732,1.765712694520344
0.0260137107279371,1.672650933733358
0.028014765399316875,1.6290016090443888
0.030015820070696652,1.6435219739797187
0.03201687474207643,1.6469093988145638
0.0340179294134562,1.6469093988145638
0.03601898408483598,1.6469093988145638
0.03802003875621576,1.6469093988145638
0.040021093427595536,1.6469093988145638
0.04202214809897531,1.6469093988145638
0.04402320277035509,1.6469093988145638
0.04602425744173487,1.6469093988145638
0.04802531211311464,1.6469093988145638
0.05002636678449442,1.6469093988145638
0.0520274214558742,1.6377964784531727
0.05402847612725398,1.6228862761654503
0.05602953079863375,1.6353690785354809
0.058030585470013524,1.6469093988145638
0.060031640141393304,1.6469093988145638
0.062032694812773084,1.6469093988145638
0.06403374948415286,1.6469093988145638
0.06603480415553263,1.6469093988145638
0.0680358588269124,1.6469093988145638
0.07003691349829219,1.6469093988145638
0.07203796816967196,1.6469093988145638
0.07403902284105174,1.6469093988145638
0.07604007751243153,1.6469093988145638
0.0780411321838113,1.645858429576457
0.08004218685519107,1.6309482272887346
0.08204324152657085,1.6273071274121966
0.08404429619795062,1.642217329699919
0.0860453508693304,1.6469093988145638
0.08804640554071018,1.6469093988145638
0.09004746021208995,1.6469093988145638
0.09204851488346974,1.6469093988145638
0.09404956955484951,1.6469093988145638
0.09605062422622929,1.6469093988145638
0.09805167889760906,1.6469093988145638
0.10005273356898883,1.6469093988145638
0.10205378824036862,1.643710502917653
0.1040548429117484,1.6293252839456562
0.10605589758312817,1.637150046231627
0.10805695225450795,1.6646873584066446
0.11005800692588773,1.6690488749582415
0.1120590615972675,1.6784016678185545
0.11406011626864727,1.7439362083062422
0.11606117094002705,1.779847586790855
0.11806222561140683,1.779847586790855
0.12006328028278661,1.779847586790855
0.12206433495416638,1.779847586790855
0.12406538962554617,1.779847586790855
0.12606644429692593,1.744239998170105
0.12806749896830572,1.6490989442490478
0.1300685536396855,1.6419257280206614
0.13206960831106526,1.6758315554112657
0.13407066298244505,1.642665827936418
0.1360717176538248,1.6470221954595021
0.1380727723252046,1.7421632493805594
0.14007382699658438,1.779847586790855
0.14207488166796414,1.779847586790855
0.14407593633934393,1.779847586790855
0.14607699101072372,1.779847586790855
0.14807804568210348,1.779847586790855
0.15007910035348326,1.7453667030508573
0.15208015502486305,1.6798321625631696
0.1540812096962428,1.6689246401354783
0.1560822643676226,1.6650440406389877
0.15808331903900236,1.6375168203396895
0.16008437371038214,1.6288431330287236
0.16208542838176193,1.6433634979640537
0.1640864830531417,1.6469093988145638
0.16608753772452148,1.6469093988145638
0.16808859239590124,1.6469093988145638
0.17008964706728102,1.6469093988145638
0.1720907017386608,1.6469093988145638
0.17409175641004057,1.6469093988145638
0.17609281108142036,1.6469093988145638
0.17809386575280015,1.6469093988145638
0.1800949204241799,1.6469093988145638
0.1820959750955597,1.6469093988145638
0.18409702976693948,1.6379592091739117
0.18609808443831924,1.6230490068861896
0.18809913910969903,1.6352063478147416
0.19010019378107879,1.6469093988145638
0.19210124845245857,1.6469093988145638
0.19410230312383836,1.6469093988145638
0.19610335779521812,1.6469093988145638
0.1981044124665979,1.6469093988145638
0.20010546713797767,1.6469093988145638
0.20210652180935745,1.6469093988145638
0.20410757648073724,1.6469093988145638
0.206108631152117,1.6469093988145638
0.2081096858234968,1.6469093988145638
0.21011074049487657,1.646021160297196
0.21211179516625633,1.6311109580094738
0.21411284983763612,1.6271443966914576
0.2161139045090159,1.64205459897918
0.21811495918039567,1.6469093988145638
0.22011601385177545,1.6469093988145638
0.22211706852315521,1.6469093988145638
0.224118123194535,1.6469093988145638
0.2261191778659148,1.6469093988145638
0.22812023253729455,1.6469093988145638
0.23012128720867434,1.6469093988145638
0.2321223418800541,1.6469093988145638
0.23412339655143388,1.6469093988145638
0.23612445122281367,1.6469093988145638
0.23812550589419343,1.6394453083884388
0.24012656056557322,1.6250600894164418
0.242127615236953,1.6452774797020453
0.24412866990833276,1.6690694640786117
0.24612972457971255,1.6688860340670684
0.24813077925109234,1.6977282099417872
0.2501318339224721,1.7633461277074496
0.25213288859385186,1.779847586790855
0.25413394326523164,1.779847586790855
0.25613499793661143,1.779847586790855
0.2581360526079912,1.779847586790855
0.260137107279371,1.779847586790855
0.26213816195075074,1.7160308271121127
0.2641392166221305,1.6208897731910554
0.2661402712935103,1.657023915174523
0.2681413259648901,1.6699441521200198
0.2701423806362699,1.6174644155906623
0.2721434353076496,1.646671148475418
0.2741444899790294,1.7319433645853524
0.2761455446504092,1.7404356862443227
0.278146599321789,1.7404356862443227
0.28014765399316877,1.7404356862443227
0.28214870866454855,1.740670007107388
0.2841497633359283,1.7411247922599744
0.28615081800730807,1.7048059632984456
0.28815187267868786,1.6663138583121646
0.29015292735006765,1.6663138583121646
0.29215398202144743,1.656792480005621
0.29415503669282717,1.6350279156645726
0.29615609136420695,1.6372224016769263
0.29815714603558674,1.6470787468247248
0.3001582007069665,1.6470787468247248
0.3021592553783463,1.6470787468247248
0.3041603100497261,1.6470787468247248
0.30616136472110583,1.6470787468247248
0.3081624193924856,1.6470787468247248
0.3101634740638654,1.6470787468247248
0.3121645287352452,1.6470787468247248
0.314165583406625,1.6470787468247248
0.3161666380780047,1.6406080111378525
0.3181676927493845,1.6296287304469326
0.3201687474207643,1.6383412565068032
0.3221698020921441,1.6470787468247248
0.32417085676352386,1.6470787468247248
0.3261719114349036,1.6470787468247248
0.3281729661062834,1.6470787468247248
0.33017402077766317,1.6470787468247248
0.33217507544904296,1.6470787468247248
0.33417613012042274,1.6470787468247248
0.3361771847918025,1.6470787468247248
0.33817823946318226,1.6470787468247248
0.34017929413456205,1.6470787468247248
0.34218034880594184,1.6465445117024289
0.3441814034773216,1.635565231011509
0.3461824581487014,1.6324047559422268
0.34818351282008114,1.6433840366331463
0.35018456749146093,1.6470787468247248
0.3521856221628407,1.6470787468247248
0.3541866768342205,1.6470787468247248
0.3561877315056003,1.6470787468247248
0.35818878617698,1.6470787468247248
0.3601898408483598,1.6470787468247248
0.3621908955197396,1.6470787468247248
0.3641919501911194,1.6470787468247248
0.36619300486249917,1.6470787468247248
0.36819405953387896,1.6470787468247248
0.3701951142052587,1.6418572768141257
0.3721961688766385,1.6315779459696247
0.37419722354801827,1.6475248308404156
0.37619827821939805,1.6666934277775325
0.37819933289077784,1.6664516336714073
0.38020038756215757,1.6853486368364825
0.38220144223353736,1.7295954423068598
0.38420249690491715,1.7412054499268723
0.38620355157629693,1.7412054499268723
0.3882046062476767,1.7412054499268723
0.39020566091905645,1.7412054499268723
0.39220671559043624,1.7412054499268723
0.394207770261816,1.6849139643969886
0.3962088249331958,1.59960384952434
0.3982098796045756,1.648998737968948
0.40021093427595533,1.6803340566188976
0.4022119889473351,1.6519376798319294
0.4042130436187149,1.7209125536525012
0.4062140982900947,1.859796942557707
0.4082151529614745,1.875144330690478
0.41021620763285427,1.8356998848361763
0.412217262304234,1.6353804011558088
0.4142183169756138,1.6373405771103997
0.4162193716469936,1.8381148459433554
0.41822042631837336,1.7764332029808927
0.42022148098975315,1.6722457052899518
0.4222225356611329,1.7038424451767813
0.42422359033251267,1.6823091900633684
0.42622464500389246,1.5893506431639104
0.42822569967527224,1.6054704108206763
0.43022675434665203,1.6588228344130909
0.4322278090180318,1.6588228344130909
0.43422886368941155,1.6642991461061862
0.43622991836079134,1.6799998102693114
0.4382309730321711,1.6956802704163407
0.4402320277035509,1.7113501455071203
0.4422330823749307,1.631350491701513
0.44423413704631043,1.5889996609837114
0.4462351917176902,1.657623492043611
0.44823624638907,1.6866179954865623
0.4502373010604498,1.6867316917747088
0.4522383557318296,1.6259800989391497
0.4542394104032093,1.583900321971249
0.4562404650745891,1.6524944135594002
0.4582415197459689,1.6779388961781816
0.46024257441734867,1.6603513436939963
0.46224362908872846,1.6411846547158384
0.4642446837601082,1.6219234223425338
0.466245738431488,1.6048098696719455
0.46824679310286776,1.5880055515973241
0.47024784777424755,1.5716231891165553
0.47224890244562734,1.7047828603919346
0.4742499571170071,1.8794178611251335
0.47625101178838686,1.7037242503443204
0.47825206645976664,1.5704005430332737
0.48025312113114643,1.5174624233328597
0.4822541758025262,1.5326002491474626
0.484255230473906,1.583981992992358
0.48625628514528574,1.6017702491158166
0.4882573398166655,1.6028628134135512
0.4902583944880453,1.5620493769095551
0.4922594491594251,1.576502873984617
0.4942605038308049,1.6318381613258337
0.4962615585021847,1.6680214832235714
0.4982626131735644,1.6898340112305317
0.5002636678449442,1.6611612066988946
0.5022647225163239,1.6394570519571763
0.5042657771877037,1.624804431220624
0.5062668318590835,1.5952852079874007
0.5082678865304633,1.5643694823180507
0.5102689412018431,1.5510561591215286
0.5122699958732229,1.6253312668976996
0.5142710505446026,1.8209192015199882
0.5162721052159824,1.8740440773881772
0.5182731598873622,1.8714397137091277
0.520274214558742,1.807959286160621
0.5222752692301218,1.7660162480664736
0.5242763239015015,1.7655993616766028
0.5262773785728813,1.659946056152384
0.528278433244261,1.497360364102776
0.5302794879156408,1.6069662980357413
0.5322805425870206,1.6998105732389373
0.5342815972584004,1.711182988727324
0.5362826519297802,1.7689640962116089
0.53828370660116,1.8615886722883555
0.5402847612725398,1.8728350396428295
0.5422858159439196,1.872919626785807
0.5442868706152992,1.8733744119383935
0.546287925286679,1.8738291970909797
0.5482889799580588,1.8742839822435662
0.5502900346294386,1.7281774821350568
0.5522910893008184,1.5614266043720482
0.5542921439721982,1.5249313184177289
0.556293198643578,1.5207673766978682
0.5582942533149577,1.5620583336008471
0.5602953079863375,1.6051454576367667
0.5622963626577173,1.6475867908552075
0.5642974173290971,1.6475867908552075
0.5662984720004768,1.6475867908552075
0.5682995266718566,1.6475867908552075
0.5703005813432364,1.6476513542153413
0.5723016360146161,1.64775140694891
0.5743026906859959,1.647756138865368
0.5763037453573757,1.647730113324849
0.5783048000287555,1.6476300605912804
0.5803058547001353,1.6476435738527035
0.5823069093715151,1.6477436265862724
0.5843079640428949,1.6130438165048069
0.5863090187142747,1.5878212499455853
0.5883100733856543,1.6273950001594533
0.5903111280570341,1.6475867908552075
0.5923121827284139,1.6475867908552075
0.5943132373997937,1.6475867908552075
0.5963142920711735,1.6475867908552075
0.5983153467425533,1.6475867908552075
0.600316401413933,1.6421849906525612
0.6023174560853128,1.6290739987699798
0.6043185107566926,1.6142953540798086
0.6063195654280724,1.6001829181455818
0.6083206200994522,1.6338256498081534
0.6103216747708319,1.6585728335216237
0.6123227294422117,1.6656015380548452
0.6143237841135915,1.6382417546183385
0.6163248387849712,1.59167706082028
0.618325893456351,1.5821528246676382
0.6203269481277308,1.5501113823770407
0.6223280027991106,1.447031501642578
0.6243290574704904,1.440003833248524
0.6263301121418702,1.5072617064951555
0.62833116681325,1.592954646728445
0.6303322214846296,1.6878172854638178
0.6323332761560094,1.8123055559240573
0.6343343308273892,1.8283627226959709
0.636335385498769,1.7298014169067863
0.6383364401701488,1.6004159866361503
0.6403374948415286,1.4835392224661734
0.6423385495129084,1.5494747376494624
0.6443396041842882,1.6460444776561796
0.6463406588556679,1.7869963184371462
0.6483417135270477,1.755018080870063
0.6503427681984275,1.661682607993567
0.6523438228698072,1.8762022656489938
0.654344877541187,1.9910946108610124
0.6563459322125668,1.9042656301903018
0.6583469868839465,1.8725448788565273
0.6603480415553263,1.872090093703941
0.6623490962267061,1.7853193512095826
0.6643501508980859,1.7106914540156135
0.6663512055694657,1.6866685695197507
0.6683522602408455,1.634409424799002
0.6703533149122253,1.5599875660868054
0.672354369583605,1.6112655781062166
0.6743554242549847,1.6790262609580284
0.6763564789263645,1.734119400788645
0.6783575335977443,1.7628316834566284
0.6803585882691241,1.7632485698464992
0.6823596429405039,1.76366545623637
0.6843606976118837,1.7483140904591745
0.6863617522832635,1.5867011333192649
0.6883628069546432,1.533719720095012
0.690363861626023,1.6405121169669126
0.6923649162974028,1.636422227306696
0.6943659709687825,1.5891436718226795
0.6963670256401623,1.6236712156267432
0.6983680803115421,1.6469093988145638
0.7003691349829219,1.6469093988145638
0.7023701896543016,1.6469755148347855
0.7043712443256814,1.6470797364322531
0.7063722989970612,1.6470858029918147
0.708373353668441,1.6436123842554988
0.7103744083398208,1.6296743408227268
0.7123754630112006,1.623494444348442
0.7143765176825804,1.623494444348442
0.71637757235396,1.623494444348442
0.7183786270253398,1.6212499083454732
0.7203796816967196,1.6081577739408877
0.7223807363680994,1.6076040820356459
0.7243817910394792,1.6206962164402314
0.726382845710859,1.623494444348442
0.7283839003822388,1.623494444348442
0.7303849550536186,1.623494444348442
0.7323860097249983,1.6235353936254826
0.7343870643963781,1.6236374882515734
0.7363881190677579,1.6236672484404429
0.7383891737391376,1.623668873411754
0.7403902284105174,1.623770968037845
0.7423912830818972,1.6194730063133176
0.744392337753277,1.6059664878381281
0.7463933924246567,1.609498205947829
0.7483944470960365,1.6230047244230186
0.7503955017674163,1.623840052532444
0.7523965564387961,1.623564271687069
0.7543976111101759,1.6224412308000702
0.7563986657815557,1.6292326358978133
0.7583997204529354,1.6424219854059185
0.7604007751243151,1.6230542723518222
0.7624018297956949,1.6008734801963542
0.7644028844670747,1.5909407941167504
0.7664039391384545,1.6080397036551937
0.7684049938098343,1.6549897723737583
0.7704060484812141,1.629195901612284
0.7724071031525939,1.5914892035529782
0.7744081578239737,1.6375766474098252
0.7764092124953534,1.6425129288535938
0.7784102671667332,1.5850632947397867
0.7804113218381129,1.6230307260376928
0.7824123765094927,1.7005911885625662
0.7844134311808725,1.74927069162594
0.7864144858522523,1.7825210816736363
0.788415540523632,1.7829379680635071
0.7904165951950118,1.7288278587941546
0.7924176498663916,1.642294155296689
0.7944187045377714,1.6072415741500083
0.7964197592091512,1.5975562042693012
0.798420813880531,1.6560541893705865
0.8004218685519107,1.6726895412938863
0.8024229232232905,1.654982286032266
0.8044239778946702,1.7217914517719173
0.80642503256605,1.7893755356582512
0.8084260872374298,1.7889586492683804
0.8104271419088096,1.7885417628785096
0.8124281965801894,1.7881248764886388
0.8144292512515692,1.861426357350996
0.816430305922949,1.9337784216419618
0.8184313605943287,1.7749447071011908
0.8204324152657085,1.6774923948092695
0.8224334699370882,1.6745220792814401
0.824434524608468,1.6635659920825259
0.8264355792798478,1.6491916376578497
0.8284366339512276,1.633007977416916
0.8304376886226074,1.6218101383705783
0.8324387432939871,1.6214017598662152
0.8344397979653669,1.6283611521767152
0.8364408526367467,1.6397702266423626
0.8384419073081265,1.6292731325042742
0.8404429619795063,1.614763925936725
0.8424440166508861,1.5926294106291554
0.8444450713222658,1.6017804406643579
0.8464461259936455,1.6369766871974198
0.8484471806650253,1.642057573015215
0.8504482353364051,1.635980863090507
0.8524492900077849,1.598671253868104
0.8544503446791647,1.596912962557948
0.8564513993505445,1.6355774525474311
0.8584524540219243,1.6442633361558001
0.8604535086933041,1.6454954300281832
0.8624545633646838,1.6603821026950487
0.8644556180360636,1.669460332820681
0.8664566727074433,1.669460332820681
0.8684577273788231,1.669460332820681
0.8704587820502029,1.6694598221154118
0.8724598367215827,1.669357727489321
0.8744608913929625,1.6692875287286801
0.8764619460643422,1.6692875287286801
0.878463000735722,1.6322554725296332
0.8804640554071018,1.5725096973412935
0.8824651100784816,1.6116730464123656
0.8844661647498614,1.6476102684407108
0.8864672194212411,1.6477103211742794
0.8884682740926209,1.6478103739078485
0.8904693287640006,1.6479104266414175
0.8924703834353804,1.647925486875529
0.8944714381067602,1.6479411840983946
0.89647249277814,1.6480412368319635
0.8984735474495198,1.6412517761284635
0.9004746021208996,1.626513395905995
0.9024756567922794,1.6328561613589954
0.9044767114636592,1.6413646998728892
0.9064777661350389,1.6025025506091342
0.9084788208064186,1.5995812136517369
0.9104798754777984,1.6537000599899567
0.9124809301491782,1.6701771792046967
0.914481984820558,1.6702207950548948
0.9164830394919378,1.7927550746667347
0.9184840941633176,1.8774536217381261
0.9204851488346973,1.8774536217381261
0.9224862035060771,1.877733855426964
0.9244872581774569,1.8781886405795503
0.9264883128488367,1.8782233854206756
0.9284893675202164,1.8965632326533963
0.9304904221915962,1.9759516658517453
0.932491476862976,1.9013832015553285
0.9344925315343557,1.6948331063828919
0.9364935862057355,1.6919795618694915
0.9384946408771153,1.7351649662307025
0.9404956955484951,1.827600048493871
0.9424967502198749,1.8774536217381261
0.9444978048912547,1.8774536217381261
0.9464988595626345,1.8778029314801536
0.9484999142340143,1.8782577166327399
0.9505009689053939,1.8787125017853263
0.9525020235767737,1.8788190112685377
0.9545030782481535,1.8783642261159512
0.9565041329195333,1.7526521158669153
0.9585051875909131,1.5707474902089984
0.9605062422622929,1.6012628841495424
0.9625072969336727,1.6271796044297984
0.9645083516050524,1.6415218575030348
0.9665094062764322,1.6381057685283704
0.968510460947812,1.623457231576862
0.9705115156191918,1.6221908923626525
0.9725125702905715,1.622112011612435
0.9745136249619513,1.622112011612435
0.976514679633331,1.622112011612435
0.9785157343047108,1.622112011612435
0.9805167889760906,1.6221979958086696
0.9825178436474704,1.6178357374906167
0.9845188983188502,1.5880985855386758
0.98651995299023,1.598374201985666
0.9885210076616098,1.6561873761125785
0.9905220623329896,1.669805941004683
0.9925231170043693,1.669798605419907
0.994524171675749,1.669696510793816
0.9965252263471288,1.6696331369126818
0.9985262810185086,1.6696331369126818
1.0005273356898885,1.654449472512743
1.0025283903612683,1.6323376327674033
1.0045294450326478,1.6393914803691712
1.0065304997040276,1.6481048518888035
1.0085315543754074,1.6602610816189722
1.0105326090467872,1.6337768454658939
1.012533663718167,1.58247498372686
1.0145347183895468,1.5915524598913204
1.0165357730609266,1.605352753925701
1.0185368277323064,1.6164096019313348
1.0205378824036861,1.621593599336432
1.022538937075066,1.621593599336432
1.0245399917464457,1.6217648248848737
1.0265410464178255,1.6241073408134694
1.0285421010892053,1.6389600670171602
1.030543155760585,1.6405761427710557
1.0325442104319649,1.6262338896978197
1.0345452651033447,1.6228032279804383
1.0365463197747244,1.6214957064218747
1.0385473744461042,1.6023274403733252
1.040548429117484,1.6083342677617303
1.0425494837888638,1.6561878303667585
1.0445505384602436,1.6544797034533818
1.0465515931316232,1.629772576810096
1.048552647803003,1.617405758494438
1.0505537024743827,1.655947400612268
1.0525547571457625,1.8142126337123112
1.0545558118171423,1.876408587915471
1.056556866488522,1.8759538027628848
1.0585579211599019,1.8754990176102986
1.0605589758312817,1.8659198935479153
1.0625600305026615,1.8240096925634237
1.0645610851740412,1.7669143051279432
1.066562139845421,1.696217703276446
1.0685631945168008,1.701832329150229
1.0705642491881806,1.7239196329488804
1.0725653038595604,1.754352339409449
1.0745663585309402,1.7710979395992095
1.07656741320232,1.7710979395992095
1.0785684678736998,1.7311317077030333
1.0805695225450795,1.6850837790125475
1.0825705772164593,1.7366173504373459
1.0845716318878391,1.7471773435839963
1.086572686559219,1.6885631171681652
1.0885737412305985,1.6698846731860946
1.0905747959019783,1.6700514277420428
1.092575850573358,1.6111689959765711
1.0945769052447378,1.5822506191309875
1.0965779599161176,1.6271018763279506
1.0985790145874974,1.6537973610617567
1.1005800692588772,1.6684713365909327
1.102581123930257,1.6703045623135686
1.1045821786016368,1.6645161159091495
1.1065832332730166,1.6357894907247768
1.1085842879443963,1.622165496382447
1.1105853426157761,1.6222675910085378
1.112586397287156,1.6222848157044358
1.1145874519585357,1.6222989761687185
1.1165885066299155,1.6224010707948093
1.1185895613012953,1.6092612379701936
1.120590615972675,1.5796803576073968
1.1225916706440549,1.5948331648813336
1.1245927253154346,1.6228094492991723
1.1265937799868144,1.6229115439252633
1.1285948346581942,1.623013638551354
1.130595889329574,1.623115733177445
1.1325969440009536,1.650822762438412
1.1345979986723334,1.691774958855957
1.1365990533437131,1.6784995932325393
1.138600108015093,1.664033360999941
1.1406011626864727,1.648925483309878
1.1426022173578525,1.642789778317297
1.1446032720292323,1.6426855567198293
1.146604326700612,1.6465246635882849
1.1486053813719919,1.6622028493612901
1.1506064360433716,1.7201467250012965
1.1526074907147514,1.7181160141975402
1.1546085453861312,1.6607765720142609
1.156609600057511,1.6104396515114805
1.1586106547288908,1.559919484621498
1.1606117094002706,1.4988873171444126
1.1626127640716504,1.488360155535704
1.1646138187430302,1.5414703394507479
1.16661487341441,1.6676445571977603
1.1686159280857897,1.804036007302421
1.1706169827571695,1.7075898257574331
1.1726180374285493,1.637669382175605
1.1746190920999289,1.6139539958687485
1.1766201467713087,1.6087736557217973
1.1786212014426884,1.6126351073754548
1.1806222561140682,1.601118632250548
1.182623310785448,1.627546120413298
1.1846243654568278,1.7490605805800958
1.1866254201282076,1.8875963967791902
1.1886264747995874,2.0377489303316194
1.1906275294709672,1.7030455399184956
1.192628584142347,1.4100622063934138
1.1946296388137267,1.4744562648288104
1.1966306934851065,1.5625898836877248
1.1986317481564863,1.672937545442943
1.200632802827866,1.749981029274324
1.202633857499246,1.8159623482756506
1.2046349121706257,1.8558435078101443
1.2066359668420055,1.8782233854206756
1.2086370215133853,1.8782233854206756
1.210638076184765,1.7565062241098754
1.2126391308561448,1.6108566921432983
1.2146401855275246,1.7730525683478269
1.2166412401989044,1.8326042224936576
1.218642294870284,1.7105247280344216
1.2206433495416638,1.6701650999018276
1.2226444042130435,1.670331854457776
1.2246454588844233,1.618136333425843
1.2266465135558031,1.5869703692091826
1.228647568227183,1.6122741640590315
1.2306486228985627,1.6226304238884375
1.2326496775699425,1.6226304238884375
1.2346507322413223,1.6226304238884375
1.236651786912702,1.6226304238884375
1.2386528415840818,1.6226304238884375
1.2406538962554616,1.6226304238884375
1.2426549509268414,1.6226304238884375
1.2446560055982212,1.6226304238884375
1.246657060269601,1.6263122656782383
1.2486581149409808,1.6551249706453954
1.2506591696123606,1.6472924991974658
1.2526602242837404,1.5919017110227611
1.2546612789551201,1.5973818491633043
1.2566623336265,1.6226304238884375
1.2586633882978797,1.6226304238884375
1.2606644429692593,1.619642273072812
1.262665497640639,1.6112822938825306
1.2646665523120189,1.623641830603479
1.2666676069833986,1.6464461574930889
1.2686686616547784,1.644448206975239
1.2706697163261582,1.6424992943832908
1.272670770997538,1.6424992943832908
1.2746718256689178,1.6425604813238688
1.2766728803402976,1.6426647029213364
1.2786739350116774,1.6146624350046288
1.2806749896830572,1.5940111199048885
1.282676044354437,1.6155193474224683
1.2846770990258167,1.6321390838001617
1.2866781536971965,1.6440492827314823
1.2886792083685763,1.6463954398885088
1.290680263039956,1.6479327342475771
1.2926813177113359,1.6589038227672954
1.2946823723827157,1.6601464773282275
1.2966834270540954,1.648575072407096
1.2986844817254752,1.6620115793939005
1.300685536396855,1.6827097840206664
1.3026865910682346,1.6710922663600853
1.3046876457396144,1.66536423393915
1.3066887004109942,1.6703932176178806
1.308689755082374,1.7056404111120869
1.3106908097537537,1.75637080014449
1.3126918644251335,1.7245699440969486
1.3146929190965133,1.6979840228757752
1.316693973767893,1.6920874981387939
1.3186950284392729,1.6898966262386999
1.3206960831106527,1.6903514113912863
1.3226971377820325,1.6522832158716418
1.3246981924534122,1.611105876759078
1.326699247124792,1.5764401700321313
1.3287003017961718,1.5413168793548424
1.3307013564675516,1.505746292136167
1.3327024111389314,1.5785504399684545
1.3347034658103112,1.6674387724053692
1.336704520481691,1.691903320579192
1.3387055751530708,1.7564203537319967
1.3407066298244505,1.8744825793434003
1.3427076844958303,1.8628738005463803
1.34470873916721,1.8070665712396845
1.3467097938385897,1.806649684849814
1.3487108485099695,1.8063787750493931
1.3507119031813493,1.8063787750493931
1.352712957852729,1.7718557458437993
1.3547140125241088,1.7193549566161987
1.3567150671954886,1.7012482317507756
1.3587161218668684,1.6858989186182964
1.3607171765382482,1.6745813136786043
1.362718231209628,1.6675695449541792
1.3647192858810078,1.6636782410634063
1.3667203405523876,1.6627864827903605
1.3687213952237673,1.6622958807376542
1.3707224498951471,1.6618875022332908
1.372723504566527,1.6645163070822455
1.3747245592379067,1.6701575356376162
1.3767256139092865,1.6543697281318608
1.3787266685806663,1.6373557352371542
1.380727723252046,1.6491926477325283
1.3827287779234259,1.660631659236564
1.3847298325948056,1.6715307536398125
1.3867308872661854,1.6708765026030208
1.388731941937565,1.6661730622860138
1.3907329966089448,1.666070967659923
1.3927340512803246,1.6660042509806632
1.3947351059517044,1.6660042509806632
1.3967361606230841,1.6660042509806632
1.398737215294464,1.6660042509806632
1.4007382699658437,1.6659061027134707
1.4027393246372235,1.6658314468886621
1.4047403793086033,1.6658314468886621
1.406741433979983,1.6658314468886621
1.4087424886513629,1.6658314468886621
1.4107435433227427,1.658074553666681
1.4127445979941224,1.6526296202030877
1.4147456526655022,1.6613064284051677
1.416746707336882,1.660187507389557
1.4187477620082618,1.649210293192273
1.4207488166796416,1.6470787468247248
1.4227498713510214,1.6470787468247248
1.4247509260224012,1.6470787468247248
1.426751980693781,1.6470787468247248
1.4287530353651607,1.6470787468247248
1.4307540900365403,1.64715159103866
1.43275514470792,1.6472480948348855
1.4347561993792999,1.6472480948348855
1.4367572540506797,1.6470272567034798
1.4387583087220595,1.6463831943016742
1.4407593633934392,1.643295135777787
1.442760418064819,1.6388927884302065
1.4447614727361988,1.6546868040044747
1.4467625274075786,1.6690549195020625
1.4487635820789584,1.676998500167237
1.4507646367503382,1.680133739511556
1.452765691421718,1.6796789543589699
1.4547667460930978,1.6796243553229158
1.4567678007644775,1.6796243553229158
1.4587688554358573,1.6796243553229158
1.4607699101072371,1.5887936195456134
1.462770964778617,1.4052120129515977
1.4647720194499967,1.5163083529093708
1.4667730741213765,1.6710777758718647
1.4687741287927563,1.590285193514903
1.470775183464136,1.5775576101522175
1.4727762381355158,1.6599874190584847
1.4747772928068954,1.6827034100531135
1.4767783474782752,1.6827034100531135
1.478779402149655,1.6827034100531135
1.4807804568210348,1.6825491264133547
1.4827815114924146,1.6820943412607685
1.4847825661637943,1.6764243554552776
1.4867836208351741,1.667904713596827
1.488784675506554,1.667672502241973
1.4907857301779337,1.6656648242445458
1.4927867848493135,1.6575157923920187
1.4947878395206933,1.658094620246121
1.496788894192073,1.6652873657675973
1.4987899488634528,1.666177055072664
1.5007910035348326,1.666177055072664
1.5027920582062124,1.666177055072664
1.5047931128775922,1.666177055072664
1.506794167548972,1.666177055072664
1.5087952222203518,1.666177055072664
1.5107962768917316,1.666177055072664
1.5127973315631114,1.666177055072664
1.5147983862344911,1.666177055072664
1.5167994409058707,1.666177055072664
1.5188004955772505,1.6607168264730001
1.5208015502486303,1.653144775484941
1.52280260492001,1.6456888900203848
1.5248036595913899,1.6407352526107817
1.5268047142627696,1.6407352526107817
1.5288057689341494,1.6333319781072595
1.5308068236055292,1.6218186820441447
1.532807878276909,1.6465738654526902
1.5348089329482888,1.6662972100941842
1.5368099876196686,1.6660930208420026
1.5388110422910484,1.6661196703715053
1.5408120969624282,1.6663238596236867
1.542813151633808,1.6528705499692495
1.5448142063051877,1.6406269122913875
1.5468152609765675,1.642964028440316
1.5488163156479473,1.6432257126595666
1.550817370319327,1.6413054829005087
1.5528184249907069,1.6409945032420452
1.5548194796620867,1.6426360637692232
1.5568205343334665,1.657765211173055
1.558821589004846,1.659898735633656
1.5608226436762258,1.6433104858652776
1.5628236983476056,1.6168421272931748
1.5648247530189854,1.5876886011504636
1.5668258076903652,1.6066681923262853
1.568826862361745,1.6231960357775594
1.5708279170331247,1.634790156752997
1.5728289717045045,1.655075441775429
1.5748300263758843,1.680262642224081
1.576831081047264,1.6396978842220906
1.578832135718644,1.6062653455519909
1.5808331903900237,1.6045977999925076
1.5828342450614035,1.6938992629585132
1.5848352997327833,1.854208113955745
1.586836354404163,1.8293602588946283
1.5888374090755428,1.7858423334536027
1.5908384637469226,1.7854254470637319
1.5928395184183024,1.7461399968983526
1.5948405730896822,1.6653923099987618
1.596841627761062,1.6609541076396168
1.5988426824324418,1.6633029174318306
1.6008437371038213,1.5437824418258266
1.6028447917752011,1.4975747885462733
1.604845846446581,1.5585861117038615
1.6068469011179607,1.664527408185272
1.6088479557893405,1.787942825536083
1.6108490104607203,1.8848391335817618
1.6128500651321,1.9016926256166968
1.6148511198034798,1.7548020189703515
1.6168521744748596,1.7035926762971065
1.6188532291462394,1.7072050020376244
1.6208542838176192,1.7074103411542978
1.622855338488999,1.6995149401578185
1.6248563931603788,1.6680049822789418
1.6268574478317586,1.6581228747911465
1.6288585025031384,1.6653738321608325
1.6308595571745181,1.6569297676906654
1.632860611845898,1.6479081971807785
1.6348616665172777,1.6478081444472097
1.6368627211886575,1.647756138865368
1.6388637758600373,1.647756138865368
1.640864830531417,1.647756138865368
1.6428658852027969,1.647756138865368
1.6448669398741764,1.647756138865368
1.6468679945455562,1.647756138865368
1.648869049216936,1.647756138865368
1.6508701038883158,1.642500344656415
1.6528711585596956,1.6353506008851413
1.6548722132310754,1.6426544504356775
1.6568732679024551,1.6475543044287553
1.658874322573835,1.6474542516951862
1.6608753772452147,1.647480686728476
1.6628764319165945,1.647580739462045
1.6648774865879743,1.647492789514801
1.666878541259354,1.6474174428450465
1.6688795959307339,1.6474174428450465
1.6708806506021137,1.6474729063658382
1.6728817052734934,1.6475729590994073
1.6748827599448732,1.656963762090495
1.676883814616253,1.665527675912453
1.6788848692876328,1.6627105023237598
1.6808859239590126,1.6458336653295034
1.6828869786303924,1.6135153468659693
1.6848880333017722,1.6133664418819644
1.6868890879731517,1.6176206816963412
1.6888901426445315,1.57753882749937
1.6908911973159113,1.5270381140057345
1.692892251987291,1.4608318908311517
1.6948933066586709,1.486150280709151
1.6968943613300507,1.549871416998296
1.6988954160014305,1.6375481617544656
1.7008964706728102,1.7352114094862456
1.70289752534419,1.853993423425657
1.7048985800155698,1.7793272093345562
1.7068996346869496,1.5902997779490284
1.7089006893583294,1.588445628429567
1.7109017440297092,1.6001203598223457
1.712902798701089,1.613988011431645
1.7149038533724688,1.5811423935910542
1.7169049080438485,1.5101855369259498
1.7189059627152283,1.7650342874487597
1.7209070173866081,2.0234162753356593
1.722908072057988,2.028043714263225
1.7249091267293677,1.8533610939098755
1.7269101814007475,1.478851205569439
1.7289112360721273,1.4735346595617678
1.7309122907435068,1.5695933947164722
1.7329133454148866,1.6392412509890582
1.7349144000862664,1.6724845562739232
1.7369154547576462,1.650010884788167
1.738916509429026,1.6998794761278473
1.7409175641004058,1.7795653401072535
1.7429186187717856,1.7795653401072535
1.7449196734431653,1.764585942901845
1.7469207281145451,1.71739440356847
1.748921782785925,1.7664489281926608
1.7509228374573047,1.8732931200402692
1.7529238921286845,1.7652270265835146
1.7549249468000643,1.67118261360429
1.756926001471444,1.67118261360429
1.7589270561428239,1.6464325119319632
1.7609281108142036,1.6011910542616026
1.7629291654855834,1.6186959450626466
1.7649302201569632,1.6423397628248206
1.766931274828343,1.6424439844222882
1.7689323294997228,1.6424992943832908
1.7709333841711026,1.6424992943832908
1.7729344388424821,1.633064413039455
1.774935493513862,1.621947796654507
1.7769365481852417,1.622049891280598
1.7789376028566215,1.6220720373181812
1.7809386575280013,1.6219699426920902
1.782939712199381,1.6305023420525793
1.7849407668707609,1.6424624233785459
1.7869418215421407,1.6089629858637475
1.7889428762135204,1.596486387717035
1.7909439308849002,1.6299858252318353
1.79294498555628,1.6426756985605417
1.7949460402276598,1.6426756985605417
1.7969470948990396,1.6426756985605417
1.7989481495704194,1.6426756985605417
1.8009492042417992,1.6426756985605417
1.802950258913179,1.6426756985605417
1.8049513135845587,1.6426756985605417
1.8069523682559385,1.6322517397383915
1.8089534229273183,1.618892983078529
1.810954477598698,1.5996439958723603
1.8129555322700779,1.5983697565949562
1.8149565869414575,1.6177208384272148
1.8169576416128372,1.6222698659683734
1.818958696284217,1.6236043193371696
1.8209597509555968,1.6378506034618812
1.8229608056269766,1.6465707027942422
1.8249618602983564,1.6465707027942422
1.8269629149697362,1.654199076758157
1.828963969641116,1.6651405090871692
1.8309650243124957,1.66524260371326
1.8329660789838755,1.6648697424389827
1.8349671336552553,1.6634404176737114
1.836968188326635,1.6663797706181451
1.838969242998015,1.6720246154284562
1.8409702976693947,1.630985193666081
1.8429713523407745,1.6213546689797425
1.8449724070121543,1.7279879317995923
1.846973461683534,1.7441615788535336
1.8489745163549138,1.683212116257023
1.8509755710262936,1.7345591935449398
1.8529766256976734,1.7856664376954023
1.8549776803690532,1.724725227248838
1.8569787350404328,1.6721364284313591
1.8589797897118125,1.6292729278000975
1.8609808443831923,1.5630583167054217
1.8629818990545721,1.5029505371187872
1.864982953725952,1.6002444424212088
1.8669840083973317,1.703111848394681
1.8689850630687115,1.8149100471593984
1.8709861177400913,1.8378216098771247
1.872987172411471,1.8211111218125557
1.8749882270828508,1.8634148889101363
1.8769892817542306,1.8633027033907716
1.8789903364256104,1.7670981518821247
1.8809913910969902,1.7558830373849765
1.88299244576837,1.7981168354972696
1.8849935004397498,1.7316120683889287
1.8869945551111296,1.6729676229232837
1.8889956097825094,1.6721338501435423
1.8909966644538891,1.6775978632864823
1.892997719125269,1.6885103426220722
1.8949987737966487,1.6593674672598653
1.8969998284680285,1.6284821252350354
1.8990008831394083,1.6295696549477419
1.9010019378107879,1.6329752698216107
1.9030029924821676,1.6391198126984021
1.9050040471535474,1.6402395957366038
1.9070051018249272,1.6420630518768171
1.909006156496307,1.6722456265034633
1.9110072111676868,1.6769873788172387
1.9130082658390666,1.6403308037831896
1.9150093205104464,1.6382039132942243
1.9170103751818262,1.651732914145597
1.919011429853206,1.6489214257922273
1.9210124845245857,1.6501715519355362
1.9230135391959655,1.6609425349881166
1.9250145938673453,1.6651402305206586
1.927015648538725,1.6651402305206586
1.9290167032101049,1.6551639912225913
1.9310177578814847,1.6467400508044028
1.9330188125528645,1.6467400508044028
1.9350198672242442,1.6467400508044028
1.937020921895624,1.6467400508044028
1.9390219765670038,1.6466560137880764
1.9410230312383836,1.6465854445339767
1.9430240859097632,1.6466854972675455
1.945025140581143,1.6366847283311226
1.9470261952525227,1.6145730742123752
1.9490272499239025,1.6261668610240676
1.9510283045952823,1.6467400508044028
1.953029359266662,1.6467400508044028
1.9550304139380419,1.646702331970329
1.9570314686094217,1.64660227923676
1.9590325232808015,1.6465707027942422
1.9610335779521813,1.6465707027942422
1.963034632623561,1.6463722352981858
1.9650356872949408,1.6462619452453566
1.9670367419663206,1.6463619979789257
1.9690377966377004,1.6264564436662026
1.9710388513090802,1.5935787378579485
1.97303990598046,1.6014834950857593
1.9750409606518398,1.6112084027851767
1.9770420153232195,1.6138511199906653
1.9790430699945993,1.633800873058087
1.9810441246659791,1.669167727718767
1.983045179337359,1.7255972736426357
1.9850462340087387,1.777508397255913
1.9870472886801183,1.7779252836457837
1.989048343351498,1.7781541066892463
1.9910493980228778,1.7781541066892463
1.9930504526942576,1.7781541066892463
1.9950515073656374,1.7728508253186834
1.9970525620370172,1.6924238202574546
1.999053616708397,1.6524883296981019
2.001054671379777,1.6805154542222884
2.003055726051157,1.6706448352398815
2.0050567807225366,1.6430025289217345
2.007057835393916,1.7221834594343488
2.0090588900652957,1.77885972339825
2.0110599447366755,1.77885972339825
2.0130609994080553,1.779111106460082
2.015062054079435,1.7795279928499528
2.017063108750815,1.7795653401072535
2.0190641634221946,1.7795653401072535
2.0210652180935744,1.7795653401072535
2.023066272764954,1.7251659179071095
2.025067327436334,1.621595069926043
2.027068382107714,1.625158956160089
2.0290694367790936,1.6467400508044028
2.0310704914504734,1.6467400508044028
2.033071546121853,1.6466952795948386
2.035072600793233,1.6465952268612698
2.0370736554646127,1.58608902504271
2.0390747101359925,1.5109605795465237
2.0410757648073723,1.5109605795465237
2.043076819478752,1.5109605795465237
2.045077874150132,1.5109605795465237
2.0470789288215117,1.5109605795465237
2.0490799834928914,1.5109605795465237
2.0510810381642712,1.4406460831504104
2.053082092835651,1.4044708460489457
2.055083147507031,1.4537693440728743
2.0570842021784106,1.476189650816379
2.0590852568497904,1.4806435793215997
2.06108631152117,1.8689803096744189
2.06308736619255,2.1142732992094118
2.0650884208639297,1.6899749941732707
2.0670894755353095,1.459932428537651
2.0690905302066893,1.408056417260627
2.071091584878069,1.3991863034633734
2.073092639549449,1.3992029495109508
2.0750936942208287,1.3993249650396935
2.0770947488922085,1.3794022672871113
2.0790958035635883,1.3343620650846872
2.081096858234968,1.4066809074096995
2.083097912906348,1.5113369084579922
2.0850989675777276,1.5113369084579922
2.0871000222491074,1.5152280491664691
2.089101076920487,1.525857388816085
2.091102131591867,1.5838495919244298
2.0931031862632463,1.6648036694171846
2.095104240934626,1.6340397251357985
2.097105295606006,1.6286464570311072
2.0991063502773857,1.6912492109706614
2.1011074049487655,1.6994340074169714
2.1031084596201453,1.670689365533873
2.105109514291525,1.6275702086128958
2.107110568962905,1.605753300566176
2.1091116236342846,1.6695887820445285
2.1111126783056644,1.7192195271508364
2.113113732977044,1.755630763429777
2.115114787648424,1.9181244377857545
2.1171158423198038,2.051986705508077
2.1191168969911836,1.82465076912401
2.1211179516625633,1.718760388618673
2.123119006333943,1.7673116189467004
2.125120061005323,1.7418293563360485
2.1271211156767027,1.6883112411983754
2.1291221703480825,1.5825375436330087
2.1311232250194623,1.552719556921402
2.133124279690842,1.6565150038572418
2.135125334362222,1.7186585650459998
2.1371263890336016,1.7602730908971005
2.1391274437049814,1.8809970784965813
2.141128498376361,1.9460489425059204
2.143129553047741,1.8665839829597832
2.145130607719121,1.8511762924825568
2.1471316623905006,1.8799002228615689
2.1491327170618804,1.9027792664320535
2.15113377173326,1.8889780072807678
2.15313482640464,1.7370854511313503
2.1551358810760197,1.6469229632625821
2.1571369357473995,1.6150519987569614
2.1591379904187793,1.5667626585969294
2.161139045090159,1.5283962265812852
2.163140099761539,1.5809559798888464
2.1651411544329187,1.6100714671049148
2.1671422091042984,1.6089291983966687
2.1691432637756782,1.6165197395008626
2.171144318447058,1.6266664975895397
2.173145373118438,1.6285242194133096
2.1751464277898176,1.6336833153210686
2.177147482461197,1.6447422052192233
2.1791485371325767,1.6418821665703496
2.1811495918039565,1.6320484121852834
2.1831506464753363,1.6429220442113084
2.185151701146716,1.63370235482976
2.187152755818096,1.571643784310031
2.1891538104894757,1.582150850264664
2.1911548651608554,1.6434089989158491
2.1931559198322352,1.607660608751952
2.195156974503615,1.5728845775312938
2.197158029174995,1.5861170837411838
2.1991590838463746,1.5925919253427494
2.2011601385177544,1.5925919253427494
2.203161193189134,1.579876685526425
2.205162247860514,1.5662850200640577
2.2071633025318937,1.5662850200640577
2.2091643572032735,1.5709861856311225
2.2111654118746533,1.5818452855071459
2.213166466546033,1.600581338810931
2.215167521217413,1.6200354671883015
2.2171685758887927,1.5987131388642717
2.2191696305601725,1.577721490295084
2.2211706852315523,1.5573302308326396
2.223171739902932,1.5168531132202943
2.225172794574312,1.4661469587189848
2.2271738492456916,1.4841698310094118
2.2291749039170714,1.5192547977178363
2.231175958588451,1.593245407945869
2.233177013259831,1.6697488592935683
2.2351780679312108,1.7480363105963659
2.2371791226025906,1.644863515934611
2.2391801772739703,1.5537781850461474
2.24118123194535,1.5990306071146345
2.24318228661673,1.6155168674200755
2.2451833412881097,1.604036742657234
2.2471843959594895,1.6401505412903414
2.2491854506308693,1.6608181262559834
2.251186505302249,1.4920720444680393
2.253187559973629,1.580277869005094
2.2551886146450086,2.0100881876498535
2.2571896693163884,1.9900747138795585
2.259190723987768,1.8183400660950235
2.261191778659148,1.8427021126497576
2.2631928333305273,1.808110823962846
2.265193888001907,1.6647647408973478
2.267194942673287,1.720491748196441
2.2691959973446667,1.8792586573405692
2.2711970520160465,1.8800810526235616
2.2731981066874263,1.8766838580555767
2.275199161358806,1.8766838580555767
2.277200216030186,1.8766838580555767
2.2792012707015656,1.8766838580555767
2.2812023253729454,1.8762797424629647
2.283203380044325,1.8477560036514562
2.285204434715705,1.7040909421741077
2.287205489387085,1.6326615607049733
2.2892065440584646,1.6324890559919234
2.2912075987298444,1.5955564083644211
2.293208653401224,1.5616458166798106
2.295209708072604,1.61423502468486
2.2972107627439837,1.644439740333051
2.2992118174153635,1.644439740333051
2.3012128720867433,1.644439740333051
2.303213926758123,1.644439740333051
2.305214981429503,1.644439740333051
2.3072160361008827,1.6494402703522644
2.3092170907722624,1.6638143429173005
2.3112181454436422,1.6688360188429445
2.313219200115022,1.6689381134690353
2.315220254786402,1.6549052297463827
2.3172213094577816,1.6327175280605664
2.3192223641291614,1.5899747132433648
2.321223418800541,1.5976213049794683
2.323224473471921,1.6421275492258292
2.3252255281433007,1.6472480948348855
2.3272265828146805,1.6472480948348855
2.3292276374860603,1.6472480948348855
2.33122869215744,1.6472480948348855
2.33322974682882,1.6472480948348855
2.3352308015001997,1.6353432532291483
2.3372318561715795,1.6222848157044358
2.3392329108429593,1.6222848157044358
2.341233965514339,1.6222848157044358
2.343235020185719,1.6222848157044358
2.3452360748570986,1.6001601721815248
2.3472371295284784,1.5724913788532338
2.3492381841998577,1.6144533859648076
2.3512392388712375,1.6419700818515381
2.3532402935426173,1.6419700818515381
2.355241348213997,1.619038096397115
2.357242402885377,1.5838479805462582
2.3592434575567567,1.6048074845608329
2.3612445122281365,1.621993620845481
2.3632455668995163,1.6221978100976626
2.365246621570896,1.6285407134410843
2.367247676242276,1.6394414417476557
2.3692487309136556,1.6409189556175052
2.3712497855850354,1.6412343428666882
2.373250840256415,1.6420094607008782
2.375251894927795,1.6706851560408817
2.3772529495991748,1.7276961766571888
2.3792540042705546,1.7279329206170138
2.3812550589419343,1.7264237154438575
2.383256113613314,1.8221384983266362
2.385257168284694,1.76043190707467
2.3872582229560737,1.4798753837375964
2.3892592776274535,1.5723057878163131
2.3912603322988333,1.7979390532193487
2.393261386970213,1.79877282599909
2.395262441641593,1.8082933767863139
2.3972634963129726,1.834630787534624
2.3992645509843524,1.7679609019762095
2.401265605655732,1.6507733691606907
2.403266660327112,1.7589590895014082
2.405267714998492,1.8399050856423793
2.4072687696698716,1.8149752795281069
2.4092698243412514,1.8042619249223821
2.411270879012631,1.8042619249223821
2.413271933684011,1.8042619249223821
2.4152729883553907,1.8041076068135349
2.4172740430267705,1.8032738340337933
2.4192750976981503,1.7858095361159712
2.42127615236953,1.7512079657566966
2.42327720704091,1.7451598665463062
2.4252782617122897,1.7431216002027454
2.4272793163836694,1.7150270614498535
2.4292803710550492,1.6974165977080977
2.431281425726429,1.694601095084021
2.433282480397809,1.6589314927985321
2.435283535069188,1.612036345881292
2.437284589740568,1.6116105895682324
2.4392856444119477,1.624661997614104
2.4412866990833275,1.664231227030202
2.4432877537547073,1.6750420966841324
2.445288808426087,1.6699820860741137
2.447289863097467,1.6659865237726288
2.4492909177688467,1.6611636534510985
2.4512919724402265,1.6538223576682132
2.4532930271116062,1.655436868177346
2.455294081782986,1.663901204847231
2.457295136454366,1.6648781922898008
2.4592961911257456,1.662804701968701
2.4612972457971254,1.651837697234027
2.463298300468505,1.6462320067739202
2.465299355139885,1.6462320067739202
2.4673004098112647,1.6462320067739202
2.4693014644826445,1.6447756499144708
2.4713025191540243,1.630729471256898
2.473303573825404,1.6224576197964367
2.475304628496784,1.6224576197964367
2.4773056831681637,1.6047979449345586
2.4793067378395435,1.5822610314684948
2.4813077925109233,1.636435158836976
2.483308847182303,1.666667639605465
2.485309901853683,1.6490168271739527
2.4873109565250626,1.6427424781107154
2.4893120111964424,1.6428466997081832
2.491313065867822,1.6428521027377927
2.493314120539202,1.6367396761943496
2.4953151752105818,1.6128229040074633
2.4973162298819616,1.6169034975687513
2.4993172845533413,1.642717102829553
2.501318339224721,1.6460626587637595
2.503319393896101,1.6396929987201037
2.5053204485674807,1.6038697699835556
2.5073215032388605,1.6007779425453172
2.5093225579102403,1.6324114630636641
2.51132361258162,1.6385315152240822
2.513324667253,1.6462311917023056
2.5153257219243796,1.7281829871820642
2.5173267765957594,1.776742873271239
2.5193278312671388,1.776742873271239
2.5213288859385186,1.7764448535327775
2.5233299406098983,1.7760372565622353
2.525330995281278,1.7760372565622353
2.527332049952658,1.7495525678994255
2.5293331046240377,1.6692217673896999
2.5313341592954175,1.6586621555532197
2.5333352139667973,1.6878437346955049
2.535336268638177,1.6626270669395729
2.537337323309557,1.6616271348062606
2.5393383779809366,1.7420220716836479
2.5413394326523164,1.7774484899802425
2.543340487323696,1.7774484899802425
2.545341541995076,1.7774484899802425
2.547342596666456,1.7774484899802425
2.5493436513378356,1.7774484899802425
2.5513447060092154,1.7377811711535345
2.553345760680595,1.6554124892839053
2.555346815351975,1.638032285378711
2.5573478700233547,1.6352380244397382
2.5593489246947345,1.6062541574359892
2.5613499793661143,1.602635117108588
2.563351034037494,1.6364634729215968
2.565352088708874,1.6462320067739202
2.5673531433802537,1.646230141306855
2.5693541980516335,1.6461300885732861
2.5713552527230132,1.6414821339186403
2.573356307394393,1.627433913368544
2.575357362065773,1.6222848157044358
2.5773584167371526,1.6222848157044358
2.5793594714085324,1.6222848157044358
2.581360526079912,1.6222848157044358
2.583361580751292,1.6222848157044358
2.5853626354226718,1.6066136607796155
2.5873636900940515,1.5784132764263576
2.5893647447654313,1.6354479966903197
2.591365799436811,1.6827285925296325
2.593366854108191,1.616817156563683
2.5953679087795707,1.5992266532759876
2.5973689634509505,1.6344167691268443
2.5993700181223303,1.6419700818515381
2.60137107279371,1.6419797504308393
2.60337212746509,1.6420839720283071
2.605373182136469,1.6421881936257747
2.607374236807849,1.6422924152232425
2.6093752914792288,1.64232289020604
2.6113763461506085,1.6417229573179224
2.6133774008219883,1.6017456112275366
2.615378455493368,1.5875471995419437
2.617379510164748,1.6275245456323346
2.6193805648361277,1.64232289020604
2.6213816195075075,1.64232289020604
2.6233826741788873,1.64232289020604
2.625383728850267,1.6393515334391544
2.627384783521647,1.6272065268771025
2.6293858381930266,1.6218227667190535
2.6313868928644064,1.6219248613451442
2.633387947535786,1.6221147044220363
2.635389002207166,1.6223188936742179
2.6373900568785458,1.6225230829263992
2.6393911115499256,1.6128140354711122
2.6413921662213053,1.5921177381272007
2.643393220892685,1.6756071917125535
2.645394275564065,1.7781169490119317
2.6473953302354447,1.777700062622061
2.6493963849068245,1.7771178624841377
2.6513974395782043,1.776284089704396
2.653398494249584,1.7754503169246545
2.655399548920964,1.7746212836445705
2.6574006035923436,1.7742043972546997
2.6594016582637234,1.7231542985441972
2.661402712935103,1.5639036976135396
2.663403767606483,1.573714832544043
2.665404822277863,1.6844473522805057
2.6674058769492426,1.7530835426621174
2.6694069316206224,1.8130819945828411
2.671407986292002,1.8553070468268156
2.673409040963382,1.8743745670079286
2.6754100956347617,1.8743745670079286
2.6774111503061415,1.8743745670079286
2.6794122049775213,1.8743745670079286
2.681413259648901,1.8743745670079286
2.683414314320281,1.807021671091948
2.6854153689916607,1.6639211704936718
2.6874164236630405,1.6321644427574526
2.68941747833442,1.6281436399110558
2.6914185330057996,1.5811130789577201
2.6934195876771794,1.5746983471712657
2.695420642348559,1.631040712535039
2.697421697019939,1.6477853493496573
2.6994227516913187,1.6475860173688635
2.7014238063626985,1.6474859646352944
2.7034248610340783,1.6474489737883677
2.705425915705458,1.6475490265219368
2.707426970376838,1.6475867908552075
2.7094280250482177,1.6475867908552075
2.7114290797195975,1.6476798367124827
2.7134301343909772,1.6477798894460516
2.715431189062357,1.6478799421796206
2.717432243733737,1.623216227588579
2.7194332984051166,1.577860917762189
2.7214343530764964,1.6206523399803423
2.723435407747876,1.669460332820681
2.725436462419256,1.669460332820681
2.7274375170906358,1.669460332820681
2.7294385717620155,1.669460332820681
2.7314396264333953,1.669460332820681
2.733440681104775,1.669460332820681
2.735441735776155,1.669460332820681
2.7374427904475347,1.6695000749761761
2.7394438451189145,1.6696021696022667
2.7414448997902943,1.6696331369126818
2.743445954461674,1.6693678632852365
2.745447009133054,1.6045526736458477
2.7474480638044336,1.579831797983768
2.7494491184758134,1.6437281359883478
2.751450173147193,1.668077900084674
2.753451227818573,1.668077900084674
2.7554522824899528,1.651858573936876
2.7574533371613326,1.6275004164801454
2.7594543918327123,1.5806900304175127
2.761455446504092,1.5920329259920278
2.763456501175472,1.6526839401983784
2.7654575558468517,1.6327454893992128
2.7674586105182315,1.6099574136308445
2.7694596651896113,1.6495704185956273
2.771460719860991,1.661765539172945
2.773461774532371,1.6422108034429053
2.77546282920375,1.6247251300602101
2.77746388387513,1.6074224989267958
2.7794649385465098,1.5850266370431292
2.7814659932178896,1.6066674826189231
2.7834670478892694,1.698465865668468
2.785468102560649,1.5918876178867272
2.787469157232029,1.3977088853601498
2.7894702119034087,1.7820008603194688
2.7914712665747885,2.013052667367673
2.7934723212461683,1.8995970363643262
2.795473375917548,1.8703641593155251
2.797474430588928,1.893793846823666
2.7994754852603077,1.7368870999379615
2.8014765399316874,1.6202009697229431
2.8034775946030672,1.688641129690219
2.805478649274447,1.7697141435755774
2.807479703945827,1.8616565419234534
2.8094807586172066,1.8759140943730273
2.8114818132885864,1.8584270985604818
2.813482867959966,1.7436393260476994
2.815483922631346,1.7043955863959204
2.8174849773027257,1.7539216895125687
2.8194860319741055,1.6889517182240794
2.8214870866454853,1.5966694891335025
2.823488141316865,1.5966694891335025
2.825489195988245,1.586749470153789
2.8274902506596247,1.5607802776104722
2.8294913053310045,1.5912186953868748
2.8314923600023842,1.6470703043561288
2.833493414673764,1.6473478290740775
2.835494469345144,1.6474174428450465
2.8374955240165236,1.6474174428450465
2.8394965786879034,1.638397839943277
2.841497633359283,1.6236512921507213
2.843498688030663,1.6719302036408852
2.8454997427020428,1.7105416134270301
2.8475007973734225,1.697171821676586
2.8495018520448023,1.668669931760012
2.851502906716182,1.6269564569880004
2.853503961387562,1.5868104154250526
2.8555050160589417,1.5591652590236669
2.8575060707303215,1.6013920217690982
2.8595071254017013,1.6364193268739289
2.8615081800730806,1.6628618350314408
2.8635092347444604,1.669192676831862
2.86551028941584,1.6692875287286801
2.86751134408722,1.6692875287286801
2.8695123987585998,1.6693261566181332
2.8715134534299795,1.669428251244224
2.8735145081013593,1.669460332820681
2.875515562772739,1.669460332820681
2.877516617444119,1.6092928049549375
2.8795176721154987,1.5851321264117593
2.8815187267868785,1.6457128927930795
2.8835197814582583,1.6614205207635628
2.885520836129638,1.6481972247922823
2.887521890801018,1.6441249730986
2.8895229454723976,1.6416172734970362
2.8915240001437774,1.6416172734970362
2.893525054815157,1.6416172734970362
2.895526109486537,1.6416172734970362
2.897527164157917,1.6417045750807269
2.8995282188292966,1.6370631410366434
2.9015292735006764,1.6044535797006665
2.903530328172056,1.5940173318521358
2.905531382843436,1.6104119075602754
2.9075324375148157,1.6517754758585201
2.9095334921861955,1.6977660474921556
2.9115345468575753,1.6985423187008806
2.913535601528955,1.6768485024404967
2.915536656200335,1.617659091192231
2.9175377108717147,1.7096946976930563
2.9195387655430944,1.8722011624649462
2.9215398202144742,1.824524671350262
2.923540874885854,1.789691565495411
2.925541929557234,1.7905253382751527
2.9275429842286136,1.7518530685340674
2.9295440388999934,1.6873190553820714
2.931545093571373,1.6763931615806187
2.933546148242753,1.6858076171372767
2.9355472029141327,1.749201878630928
2.9375482575855125,1.7706287670491168
2.9395493122568923,1.7543285092051673
2.941550366928272,1.7918158471578929
2.943551421599652,1.8383897057297502
2.9455524762710317,1.875139844406051
2.947553530942411,1.870292779980977
2.949554585613791,1.8143658673706204
2.9515556402851706,1.7751337941795333
2.9535566949565504,1.7438817832377052
2.95555774962793,1.7508560473129549
2.95755880429931,1.7396899721210128
2.9595598589706897,1.6977786895681275
2.9615609136420695,1.6550508609528578
2.9635619683134493,1.6119361033388573
2.965563022984829,1.6219750035317735
2.967564077656209,1.6444732106553828
2.9695651323275887,1.6951584925011103
2.9715661869989685,1.6974365489846182
2.9735672416703482,1.6675408402387348
2.975568296341728,1.6551984935420254
2.977569351013108,1.6493191384134676
2.9795704056844876,1.6604984999704104
2.9815714603558674,1.6595664396402228
2.983572515027247,1.6475866562147266
2.985573569698627,1.6304459424434121
2.9875746243700068,1.615384880006363
2.9895756790413865,1.6199338577186684
2.9915767337127663,1.617174189932534
2.993577788384146,1.6053067105957393
2.995578843055526,1.6109951613089986
2.9975798977269057,1.6225016913397836
2.9995809523982855,1.6347509194993028
3.0015820070696653,1.6424992943832908
3.003583061741045,1.6424992943832908
3.005584116412425,1.6341639769599863
3.0075851710838046,1.621812654174376
3.0095862257551844,1.6217941672239775
3.011587280426564,1.6142821716527662
3.013588335097944,1.5878491702822932
3.015589389769324,1.5930428682492168
3.0175904444407036,1.6195779642457806
3.0195914991120834,1.613957255584652
3.021592553783463,1.6112489075672045
3.023593608454843,1.6319970225092346
3.0255946631262227,1.6359301640815238
3.0275957177976025,1.6242998845926784
3.0295967724689823,1.6222848157044358
3.0315978271403616,1.6222848157044358
3.0335988818117414,1.6222848157044358
3.035599936483121,1.6222848157044358
3.037600991154501,1.6222848157044358
3.039602045825881,1.5989396247643508
3.0416031004972606,1.572883839326126
3.0436041551686404,1.6323993626238975
3.04560520984002,1.6702180257416155
3.0476062645114,1.6700943046194603
3.0496073191827797,1.7519951156474347
3.0516083738541595,1.8740746101066843
3.0536094285255393,1.8762387931859243
3.055610483196919,1.8759140943730273
3.057611537868299,1.8759140943730273
3.0596125925396787,1.8759140943730273
3.0616136472110584,1.8759140943730273
3.0636147018824382,1.7930864949518743
3.065615756553818,1.7167048811190508
3.067616811225198,1.6994746337506277
3.0696178658965776,1.6508915062433505
3.0716189205679574,1.5728632135262912
3.073619975239337,1.713894143471635
3.075621029910717,1.8774536217381261
3.0776220845820967,1.8774536217381261
3.0796231392534765,1.8774536217381261
3.0816241939248563,1.8774536217381261
3.083625248596236,1.8774536217381261
3.085626303267616,1.8774536217381261
3.0876273579389957,1.8774536217381261
3.0896284126103755,1.813661844216254
3.0916294672817553,1.6365430073847353
3.093630521953135,1.6031665107570388
3.095631576624515,1.6413674328548
3.0976326312958946,1.64232289020604
3.0996336859672744,1.64232289020604
3.101634740638654,1.64232289020604
3.103635795310034,1.6439801567386665
3.1056368499814138,1.6467899710063953
3.1076379046527935,1.6340273003908676
3.1096389593241733,1.6224576197964367
3.111640013995553,1.6224576197964367
3.113641068666933,1.6224576197964367
3.1156421233383127,1.6224576197964367
3.117643178009692,1.5981838421362777
3.119644232681072,1.5760788093170048
3.1216452873524516,1.605700361522716
3.1236463420238314,1.6225019582993547
3.125647396695211,1.6226040529254453
3.127648451366591,1.6226304238884375
3.1296495060379708,1.6226304238884375
3.1316505607093506,1.6226304238884375
3.1336516153807303,1.6225940245310682
3.13565267005211,1.6224919299049774
3.13765372472349,1.6223898352788866
3.1396547793948697,1.6222877406527958
3.1416558340662495,1.622185646026705
3.1436568887376293,1.6130844324229148
3.145657943409009,1.5807000170269123
3.147658998080389,1.5862815056285902
3.1496600527517686,1.6186659210245926
3.1516611074231484,1.622112011612435
3.153662162094528,1.6244702241448588
3.155663216765908,1.6362025982597934
3.157664271437288,1.6420230694577087
3.1596653261086676,1.6421272910551763
3.1616663807800474,1.642146486028789
3.163667435451427,1.6406248599913107
3.165668490122807,1.6282777911484543
3.1676695447941867,1.6213359253142385
3.1696705994655665,1.62154011456642
3.1716716541369463,1.606762485770679
3.173672708808326,1.5874024879747648
3.175673763479706,1.5834628629771468
3.1776748181510857,1.5990863975414205
3.1796758728224654,1.6505841280548692
3.1816769274938452,1.710744771801056
3.183677982165225,1.7753621622310263
3.185679036836605,1.7774484899802425
3.1876800915079846,1.7773337940885316
3.1896811461793644,1.776916907698661
3.191682200850744,1.776742873271239
3.193683255522124,1.776742873271239
3.1956843101935037,1.7045390021972429
3.1976853648648835,1.6429851408246123
3.1996864195362633,1.6610541047715988
3.2016874742076427,1.7096374390782738
3.2036885288790224,1.788157844845973
3.2056895835504022,1.8746599737114935
3.207690638221782,1.9469251560136465
3.209691692893162,1.9008023617888525
3.2116927475645416,1.8743745670079286
3.2136938022359214,1.8743745670079286
3.215694856907301,1.8743745670079286
3.217695911578681,1.8683876429265052
3.2196969662500607,1.7252871423282292
3.2216980209214405,1.6321644427574526
3.2236990755928203,1.6321644427574526
3.2257001302642,1.6057718363357802
3.22770118493558,1.565579771570363
3.2297022396069597,1.6119577348861904
3.2317032942783395,1.6548935125425377
3.2337043489497193,1.6799358779820754
3.235705403621099,1.6827006290483701
3.237706458292479,1.6692602969177912
3.2397075129638586,1.6574492710188347
3.2417085676352384,1.6505402142839445
3.243709622306618,1.6631631938538114
3.245710676977998,1.669460332820681
3.2477117316493778,1.669460332820681
3.2497127863207576,1.669460332820681
3.2517138409921373,1.6627751361522753
3.253714895663517,1.6051251460588707
3.255715950334897,1.5907341564655162
3.2577170050062767,1.6352609033212093
3.2597180596776565,1.6472480948348855
3.2617191143490363,1.6472480948348855
3.263720169020416,1.6472480948348855
3.265721223691796,1.6472135154453846
3.2677222783631756,1.6471134627118158
3.2697233330345554,1.6470787468247248
3.271724387705935,1.6470787468247248
3.273725442377315,1.6471748411281797
3.275726497048695,1.650790488651068
3.2777275517200746,1.6640158265148703
3.2797286063914544,1.632611811532576
3.281729661062834,1.5682561636979269
3.283730715734214,1.5921783650596788
3.2857317704055937,1.6210568036463868
3.287732825076973,1.6210568036463868
3.289733879748353,1.6329418822313966
3.2917349344197326,1.6568315420197393
3.2937359890911124,1.6465039504172003
3.295737043762492,1.6202143771803936
3.297738098433872,1.5333207531351545
3.299739153105252,1.5172721478863065
3.3017402077766316,1.5991631352530964
3.3037412624480114,1.576258584799728
3.305742317119391,1.51925043781164
3.307743371790771,1.6080395103168985
3.3097444264621507,1.7108316858071249
3.3117454811335305,1.8405686618548638
3.3137465358049103,1.8320612299589907
3.31574759047629,1.748913434950688
3.31774864514767,1.7146485564511642
3.3197496998190497,1.6855294802123193
3.3217507544904294,1.6645940762974643
3.3237518091618092,1.6611656621202355
3.325752863833189,1.6708570445482902
3.327753918504569,1.5919216100406435
3.3297549731759486,1.538197785197305
3.3317560278473284,1.6476985677406895
3.333757082518708,1.707102302074203
3.335758137190088,1.7151634814743786
3.3377591918614677,1.790649013364403
3.3397602465328475,1.872884468315621
3.3417613012042273,1.8733392534682072
3.343762355875607,1.873604803325379
3.345763410546987,1.873604803325379
3.3477644652183667,1.873604803325379
3.3497655198897465,1.8690091326832665
3.3517665745611263,1.7203932541250646
3.353767629232506,1.6220594190626954
3.355768683903886,1.6220594190626954
3.3577697385752656,1.5999319771622942
3.3597707932466454,1.565665607627803
3.361771847918025,1.623415200223695
3.363772902589405,1.669460332820681
3.3657739572607848,1.669460332820681
3.3677750119321646,1.669460332820681
3.3697760666035443,1.669460332820681
3.371777121274924,1.669460332820681
3.3737781759463035,1.6670978492446162
3.3757792306176833,1.6541747114740426
3.377780285289063,1.6475377427211524
3.379781339960443,1.6474376899875833
3.3817823946318226,1.6474174428450465
3.3837834493032024,1.6427344462960807
3.385784503974582,1.59815475187538
3.387785558645962,1.5955949755941943
3.3897866133173418,1.652891576640765
3.3917876679887216,1.6690154156756933
3.3937887226601013,1.6691147246366793
3.395789777331481,1.6691147246366793
3.397790832002861,1.6691488954619649
3.3997918866742407,1.6692509900880557
3.4017929413456205,1.6692875287286801
3.4037939960170003,1.6692875287286801
3.40579505068838,1.6692875287286801
3.40779610535976,1.6692875287286801
3.4097971600311396,1.6692875287286801
3.4117982147025194,1.6351565457144754
3.413799269373899,1.574677873959254
3.415800324045279,1.6197339647814477
3.417801378716659,1.6670910837926303
3.4198024333880386,1.6538677878213497
3.4218034880594184,1.6470787468247248
3.423804542730798,1.6470787468247248
3.425805597402178,1.6470787468247248
3.4278066520735577,1.6467515279767733
3.4298077067449375,1.6435248273191734
3.4318087614163173,1.6416172734970362
3.433809816087697,1.6416172734970362
3.435810870759077,1.62663042871478
3.4378119254304567,1.606003757768361
3.4398129801018364,1.5976735754259659
3.4418140347732162,1.6124823218206927
3.443815089444596,1.6740456893312026
3.445816144115976,1.6966696998941495
3.4478171987873556,1.6972447156043158
3.4498182534587354,1.654933339048445
3.451819308130115,1.6329603075857784
3.453820362801495,1.6781764467948395
3.4558214174728747,1.7262155924137232
3.4578224721442545,1.7764664364850697
3.459823526815634,1.7834553318461162
3.4618245814870137,1.743697565019524
3.4638256361583935,1.5152438233703387
3.4658266908297732,1.4765930830218237
3.467827745501153,1.6411495107326552
3.469828800172533,1.6353648860108356
3.4718298548439126,1.6015488519834427
3.4738309095152924,1.7260017007242774
3.475831964186672,1.800197140436152
3.477833018858052,1.800614026826023
3.4798340735294317,1.8007338413773637
3.4818351282008115,1.800742182896761
3.4838361828721913,1.8011590692866315
3.485837237543571,1.8014394580863673
3.487838292214951,1.8014394580863673
3.4898393468863307,1.7545957601118594
3.4918404015577105,1.6808068691047322
3.4938414562290903,1.670100014384246
3.49584251090047,1.6649419375929488
3.49784356557185,1.664839842966858
3.4998446202432296,1.6646808743448775
3.5018456749146094,1.664476685092696
3.503846729585989,1.6552941326002708
3.505847784257369,1.6448250410486833
3.5078488389287488,1.6349384072968072
3.5098498936001286,1.629738397620764
3.5118509482715083,1.6296296446494933
3.513852002942888,1.6424638558158904
3.515853057614268,1.6576689368511492
3.5178541122856477,1.6619233562115003
3.5198551669570275,1.6649975306138651
3.5218562216284073,1.6663126989406805
3.523857276299787,1.6584078583092607
3.525858330971167,1.6471366271557908
3.5278593856425466,1.661016491665606
3.5298604403139264,1.6655518631916577
3.531861494985306,1.6505714186125835
3.533862549656686,1.6455517937830808
3.535863604328066,1.6463522156516326
3.5378646589994456,1.6462135341000554
3.5398657136708254,1.6460626587637595
3.541866768342205,1.6460626587637595
3.5438678230135845,1.6303467664310927
3.5458688776849643,1.6019496857083826
3.547869932356344,1.6224436225464582
3.549870987027724,1.6460794934665428
3.5518720416991036,1.6461795462001116
3.5538730963704834,1.6462320067739202
3.555874151041863,1.6462320067739202
3.557875205713243,1.6462320067739202
3.559876260384623,1.6462410611140659
3.5618773150560026,1.646341113847635
3.5638783697273824,1.6464013547840812
3.565879424398762,1.6464013547840812
3.567880479070142,1.6464013547840812
3.5698815337415217,1.6460921736219838
3.5718825884129015,1.621810410213069
3.5738836430842813,1.6117707614285859
3.575884697755661,1.6319753759445645
3.577885752427041,1.639158629001179
3.5798868070984207,1.6386139871047352
3.5818878617698005,1.7160686425930627
3.5838889164411802,1.77885972339825
3.58588997111256,1.77885972339825
3.58789102578394,1.779088925601685
3.5898920804553196,1.7795058119915557
3.5918931351266994,1.7799226983814267
3.593894189798079,1.7670152033465876
3.595895244469459,1.6864919937338552
3.5978962991408387,1.6511887624442168
3.5998973538122185,1.6664639462153943
3.6018984084835983,1.697712315161806
3.603899463154978,1.732861904239749
3.605900517826358,1.7615079547437267
3.6079015724977377,1.77885972339825
3.6099026271691175,1.77885972339825
3.6119036818404973,1.77885972339825
3.613904736511877,1.778863514997976
3.615905791183257,1.7792804013878467
3.6179068458546366,1.7601525390902488
3.6199079005260164,1.6988181289805109
3.621908955197396,1.6757514817950887
3.623910009868776,1.6757514817950887
3.6259110645401558,1.6411940272781222
3.6279121192115356,1.6177378123651276
3.629913173882915,1.637802973016458
3.6319142285542947,1.6469093988145638
3.6339152832256745,1.6469093988145638
3.6359163378970543,1.646823996822336
3.637917392568434,1.646707837373131
3.639918447239814,1.646507731905993
3.6419195019111936,1.6464013547840812
3.6439205565825734,1.6464013547840812
3.645921611253953,1.6464013547840812
3.647922665925333,1.6464096811370794
3.6499237205967128,1.6465097338706485
3.6519247752680926,1.6376737777605848
3.6539258299394723,1.6148980639666188
3.655926884610852,1.6239891179277668
3.657927939282232,1.6467405967947633
3.6599289939536117,1.6468406495283323
3.6619300486249915,1.6469407022619014
3.6639311032963713,1.6470407549954704
3.665932157967751,1.6470787468247248
3.667933212639131,1.6470787468247248
3.6699342673105106,1.6470787468247248
3.6719353219818904,1.6471022699094247
3.67393637665327,1.6472023226429937
3.67593743132465,1.6472480948348855
3.67793848599603,1.6472480948348855
3.6799395406674096,1.6335562884847794
3.6819405953387894,1.6225163996834897
3.683941650010169,1.6386256999316902
3.685942704681549,1.6471550944768067
3.6879437593529287,1.6469549890096689
3.6899448140243085,1.6552264198347015
3.6919458686956883,1.66515648023377
3.693946923367068,1.6653606694859515
3.695947978038448,1.6655253487213968
3.6979490327098277,1.6656274433474876
3.6999500873812075,1.6462333643213798
3.7019511420525872,1.6181819943398803
3.703952196723967,1.5476340894643028
3.705953251395347,1.500000886266079
3.7079543060667266,1.5035550828441495
3.7099553607381064,1.4919849840051058
3.711956415409486,1.4710123917762223
3.7139574700808655,1.5099573417031285
3.7159585247522453,1.5632117174062192
3.717959579423625,1.6476268384208919
3.719960634095005,1.686552228465861
3.7219616887663847,1.686552228465861
3.7239627434377645,1.686552228465861
3.7259637981091442,1.7712806791392526
3.727964852780524,2.322516960295905
3.729965907451904,2.3165973381781146
3.7319669621232836,1.6595635687426817
3.7339680167946634,1.6224361772979348
3.735969071466043,1.7638071599845888
3.737970126137423,1.8053162171421835
3.7399711808088028,1.8429356004719708
3.7419722354801825,1.8742982842637876
3.7439732901515623,1.8832561136133141
3.745974344822942,1.8821841200393603
3.747975399494322,1.9063889343700309
3.7499764541657017,1.8510028705443187
3.7519775088370815,1.6146560799135798
3.7539785635084613,1.5352509756995787
3.755979618179841,1.5549240429549092
3.757980672851221,1.5377258428526828
3.7599817275226006,1.53882356219959
3.7619827821939804,1.6127349771334965
3.76398383686536,1.641532336621153
3.76598489153674,1.6311567439711245
3.7679859462081198,1.6294345126528278
3.7699870008794996,1.6293440466968128
3.7719880555508793,1.6293440466968128
3.773989110222259,1.6336797445330475
3.775990164893639,1.6431570800617525
3.7779912195650187,1.638225839979937
3.7799922742363985,1.6303278860611725
3.7819933289077783,1.641188712384712
3.783994383579158,1.6221534700853297
3.785995438250538,1.5542820150893497
3.7879964929219176,1.5734134400767197
3.7899975475932974,1.6321596773927116
3.791998602264677,1.6528116469213008
3.793999656936057,1.6673483070832853
3.796000711607437,1.6682311253206588
3.7980017662788166,1.6280825167073645
3.800002820950196,1.561630926254748
3.8020038756215757,1.5760372964901
3.8040049302929555,1.5953877489054833
3.8060059849643353,1.6064480000653205
3.808007039635715,1.6169836021545034
3.810008094307095,1.6270569385954625
3.8120091489784746,1.5723751193617335
3.8140102036498544,1.522973398549822
3.8160112583212342,1.5767755782757638
3.818012312992614,1.6061600338696018
3.820013367663994,1.6061600338696018
3.8220144223353736,1.602907125674696
3.8240154770067534,1.5945189696009272
3.826016531678133,1.5303184655608275
3.828017586349513,1.49084137919545
3.8300186410208927,1.4923806520195884
3.8320196956922725,1.558535259059997
3.8340207503636523,1.6546115378333055
3.836021805035032,1.7354441648999384
3.838022859706412,1.7303961592308064
3.8400239143777917,1.5236744817535899
3.8420249690491715,1.5673907619252083
3.8440260237205512,1.7741173343502512
3.846027078391931,1.7210109252613166
3.848028133063311,1.652828521450608
3.8500291877346906,1.6187112288900931
3.8520302424060704,1.6513782892913076
3.85403129707745,1.7437543577668164
3.85603235174883,1.9783534305035193
3.8580334064202098,2.2313765550469205
3.8600344610915895,2.4267542556536372
3.8620355157629693,2.511275704188304
3.864036570434349,2.460418153980528
3.866037625105729,1.9589324307494056
3.8680386797771087,1.3663749250722907
3.8700397344484885,1.5372227956390485
3.8720407891198683,1.7268165298853115
3.874041843791248,1.9479967011006991
3.876042898462628,2.0207755797860862
3.8780439531340076,2.0236718431262415
3.8800450078053874,2.024449562092981
3.882046062476767,2.003276884646592
3.884047117148147,1.9296309261159919
3.8860481718195263,1.811549453458057
3.888049226490906,1.664101610058827
3.890050281162286,1.6230155252063594
3.8920513358336657,1.587920957755491
3.8940523905050455,1.5362508674909359
3.8960534451764253,1.5392490668493888
3.898054499847805,1.5918422626915145
3.900055554519185,1.6008648752722936
3.9020566091905646,1.5969276870592983
3.9040576638619444,1.567344484940351
3.906058718533324,1.570060599448043
3.908059773204704,1.6128055004471924
3.9100608278760838,1.623398617468837
3.9120618825474636,1.6227712717589116
3.9140629372188434,1.6109915938005548
3.916063991890223,1.5921311926112967
3.918065046561603,1.5611523649799994
3.9200661012329827,1.571258436119809
3.9220671559043625,1.6010366309482824
3.9240682105757423,1.6248238271103332
3.926069265247122,1.641647606294844
3.928070319918502,1.6417518278923118
3.9300713745898816,1.6348347651172221
3.9320724292612614,1.6232066125997553
3.9340734839326412,1.6222044956939143
3.936074538604021,1.622306590320005
3.938075593275401,1.6224086849460957
3.9400766479467806,1.6301360178057493
3.9420777026181604,1.6448825655983048
3.94407875728954,1.6157144145902356
3.94607981196092,1.5858774787524674
3.9480808666322997,1.609925291587528
3.9500819213036795,1.630070367107671
3.9520829759750593,1.6453069691054623
3.954084030646439,1.6360695531920362
3.956085085317819,1.6221411440981042
3.9580861399891987,1.664534916636049
3.9600871946605785,1.667502643849516
3.9620882493319582,1.6019289522921727
3.964089304003338,1.6245621637028305
3.966090358674718,1.6901358552601824
3.9680914133460976,1.6195867170536418
3.9700924680174774,1.5613462991929898
3.9720935226888567,1.5405155923162674
3.9740945773602365,1.6290131544697042
3.9760956320316163,1.7919843310772134
3.978096686702996,1.7756910835072564
3.980097741374376,1.766375953786948
3.9820987960457557,1.856607334465155
3.9840998507171355,1.8427881690062535
3.9861009053885152,1.7317819498994862
3.988101960059895,1.8100507741091272
3.990103014731275,1.8932397748517904
3.9921040694026546,1.743545492704326
3.9941051240740344,1.7548403182941914
3.996106178745414,1.9716212410269953
3.998107233416794,1.856935513665141
4.000108288088174,1.639276380603803
4.002109342759554,1.5870884972167163
4.004110397430933,1.5839386139728695
4.006111452102314,1.6673916894724634
4.008112506773693,1.695019628973905
4.010113561445073,1.695019628973905
4.0121146161164525,1.695463659770905
4.014115670787832,1.684400530090475
4.016116725459212,1.6442657403747196
4.018117780130591,1.6069443668972083
4.020118834801972,1.5715685789567326
4.022119889473351,1.7034002313931274
4.024120944144731,1.787834586443268
4.0261219988161105,1.616854318452192
4.028123053487491,1.574484154714402
4.03012410815887,1.6540031066108685
4.03212516283025,1.658968784477537
4.03412621750163,1.652690708745531
4.03612727217301,1.6806054214112882
4.038128326844389,1.6946154885635498
4.0401293815157695,1.6906133792207898
4.042130436187149,1.664499623342491
4.044131490858529,1.6317220857912709
4.046132545529908,1.6174153028661613
4.048133600201289,1.6081316141993383
4.050134654872668,1.6078601353072333
4.052135709544048,1.5753241197955183
4.054136764215428,1.5265565944054602
4.056137818886808,1.5836257090306927
4.058138873558187,1.6275460287183403
4.060139928229567,1.630047347057566
4.062140982900947,1.640983029531569
4.064142037572327,1.6578397400785239
4.066143092243706,1.6370343790091044
4.0681441469150865,1.6168701030944999
4.070145201586466,1.6166572249379703
4.072146256257846,1.6164443467814404
4.074147310929225,1.6162314686249106
4.076148365600606,1.6160185904683808
4.078149420271985,1.61343965396641
4.080150474943365,1.5942378623002766
4.082151529614745,1.5936708851690937
4.084152584286125,1.617603785252792
4.086153638957504,1.623689069483764
4.088154693628884,1.622637012249205
4.090155748300264,1.604331253159756
4.092156802971644,1.5997433601565842
4.094157857643023,1.620161076707318
4.0961589123144035,1.6346926548443181
4.098159966985783,1.6462144137511927
4.100161021657162,1.6466676615824345
4.1021620763285425,1.6432533192197938
4.104163130999922,1.630642591005059
4.106164185671302,1.605040378215266
4.108165240342681,1.5701802149689619
4.110166295014062,1.6719601225226337
4.112167349685441,1.7668642393451874
4.114168404356821,1.7668642393451874
4.1161694590282005,1.7668642393451874
4.118170513699581,1.7668642393451874
4.12017156837096,1.7668642393451874
4.12217262304234,1.7668642393451874
4.12417367771372,1.7668642393451874
4.1261747323851,1.6632853180310159
4.128175787056479,1.421491211906051
4.1301768417278595,1.499658380272868
4.132177896399239,1.6830147771044512
4.134178951070619,1.651449595342781
4.136180005741998,1.6589592923236938
4.138181060413379,1.738841138259709
4.140182115084758,1.766158622636184
4.142183169756138,1.766158622636184
4.1441842244275175,1.7665611009470958
4.146185279098898,1.7670917353287459
4.148186333770277,1.7679255081084875
4.150187388441657,1.720111539764085
4.152188443113037,1.6371080220015455
4.154189497784417,1.6277847528394989
4.156190552455796,1.6219196749650404
4.1581916071271765,1.591856024042079
4.160192661798556,1.5907839919651159
4.162193716469936,1.618414974383637
4.164194771141315,1.6236672484404429
4.166195825812696,1.6236672484404429
4.168196880484075,1.6236672484404429
4.170197935155455,1.6236672484404429
4.172198989826835,1.6236672484404429
4.174200044498215,1.6236672484404429
4.176201099169594,1.6236430131540311
4.178202153840974,1.6230304453974862
4.180203208512354,1.6267034889576417
4.182204263183734,1.6384422439867081
4.184205317855113,1.6275058756668537
4.186206372526493,1.6045937646470882
4.188207427197873,1.6259559087300473
4.190208481869252,1.6428521027377927
4.192209536540632,1.6428521027377927
4.194210591212012,1.6428521027377927
4.196211645883392,1.6428521027377927
4.198212700554771,1.6428521027377927
4.200213755226152,1.6407602645947912
4.202214809897531,1.6298340126316995
4.204215864568911,1.6243075335647805
4.2062169192402905,1.6242054389386897
4.208217973911671,1.6241856607164458
4.21021902858305,1.6224591164547661
4.21222008325443,1.6072724331290007
4.21422113792581,1.6093883686586863
4.21622219259719,1.6352907337812292
4.218223247268569,1.64232289020604
4.2202243019399495,1.64232289020604
4.222225356611329,1.64232289020604
4.224226411282709,1.6347339843965005
4.226227465954088,1.6126306680055595
4.228228520625469,1.6196339441752174
4.230229575296848,1.6422583685535024
4.232230629968228,1.6433047723500775
4.2342316846396075,1.63782343672723
4.236232739310988,1.6168957399557098
4.238233793982367,1.6067464237252225
4.240234848653747,1.6046295672788777
4.242235903325127,1.6190126069342752
4.244236957996507,1.6288818587574494
4.246238012667886,1.609538330267447
4.2482390673392665,1.6509331581917852
4.250240122010646,1.7542376056017541
4.252241176682026,1.8105835862301298
4.254242231353405,1.845339008039817
4.256243286024786,1.7988722096611274
4.258244340696165,1.7716295218807911
4.260245395367545,1.7712126354909201
4.2622464500389246,1.7130308731066106
4.264247504710305,1.636294327890313
4.266248559381684,1.660556199546966
4.268249614053064,1.6683345622199623
4.270250668724444,1.6440726905633156
4.272251723395823,1.687348764024218
4.274252778067203,1.7674550872471075
4.276253832738583,1.770700011207969
4.278254887409963,1.7460411528101278
4.280255942081342,1.653075487868953
4.282256996752722,1.6361544386933873
4.284258051424102,1.67675275943003
4.286259106095482,1.6044927726800944
4.288260160766861,1.5427979800050953
4.290261215438242,1.5981719928941573
4.292262270109621,1.6092759827074494
4.294263324781001,1.5745946942610713
4.2962643794523805,1.6048113456465982
4.298265434123761,1.6464120015961117
4.30026648879514,1.6465120543296807
4.30226754346652,1.6465707027942422
4.3042685981379,1.6465707027942422
4.30626965280928,1.6465707027942422
4.308270707480659,1.6452971499454896
4.310271762152039,1.600844090986453
4.312272816823419,1.5863026100681603
4.314273871494799,1.630855721760754
4.316274926166178,1.6467400508044028
4.318275980837559,1.6467400508044028
4.320277035508938,1.6121253108819993
4.322278090180318,1.5945282431930765
4.3242791448516975,1.6309308319493512
4.326280199523078,1.6467400508044028
4.328281254194457,1.6467400508044028
4.330282308865837,1.6467400508044028
4.332283363537217,1.6467400508044028
4.334284418208597,1.6467400508044028
4.336285472879976,1.6399390370191578
4.3382865275513565,1.6260010786652368
4.340287582222736,1.6141808720652746
4.342288636894116,1.5993755650849981
4.344289691565495,1.5537532510924115
4.346290746236876,1.5313172714117576
4.348291800908255,1.5422212868559062
4.350292855579635,1.5365763333727398
4.3522939102510145,1.524158687702702
4.354294964922394,1.501602840307926
4.356296019593774,1.5349477313921291
4.3582970742651534,1.6805529290249928
4.360298128936534,1.772546454141963
4.362299183607913,1.8343619802307032
4.364300238279293,1.8122393361160727
4.366301292950673,1.7766219970719974
4.368302347622053,1.7151896186606181
4.370303402293432,1.4910963835267368
4.372304456964812,1.1402698109947598
4.374305511636192,1.3104399337081212
4.376306566307572,1.5661705493660325
4.378307620978951,1.8561305965993333
4.3803086756503316,2.2108809649229446
4.382309730321711,2.634619337111408
4.384310784993091,2.482343138705523
4.3863118396644705,2.1728391335909567
4.388312894335851,1.8115631939899202
4.39031394900723,1.6303315389966715
4.39231500367861,1.71191620549439
4.39431605834999,1.521310580866279
4.39631711302137,1.2347263735425775
4.398318167692749,1.5466226778332939
4.400319222364129,1.783883626678957
4.402320277035509,1.8687769619187817
4.404321331706889,1.8872633622971549
4.406322386378268,1.8677758185088338
4.408323441049649,1.9727665060346151
4.410324495721028,2.0293219336849253
4.412325550392408,1.9191664727977327
4.4143266050637875,1.8705257485951812
4.416327659735168,1.8705257485951812
4.418328714406547,1.7331437558924532
4.420329769077927,1.6020003791833053
4.422330823749307,1.6021927882863225
4.424331878420687,1.5843260706550306
4.426332933092066,1.5469479786334315
4.4283339877634464,1.5786777244025814
4.430335042434826,1.6241954105443126
4.432336097106206,1.6242975051704034
4.434337151777585,1.629686268460359
4.436338206448966,1.642909564431641
4.438339261120345,1.6468111205496665
4.440340315791724,1.6469129477519073
4.4423413704631045,1.6471130532190452
4.444342425134484,1.6462002957296125
4.446343479805864,1.6429777639359109
4.448344534477243,1.6418596041145226
4.450345589148624,1.6419638257119904
4.452346643820003,1.5934652331741677
4.454347698491383,1.564441241520421
4.456348753162763,1.6041070788507203
4.458349807834143,1.6365499281395919
4.460350862505522,1.663196625549289
4.462351917176902,1.644421382026213
4.464352971848282,1.6228205455318399
4.466354026519662,1.6229226401579306
4.468355081191041,1.6301509155427278
4.4703561358624215,1.6451914958584302
4.472357190533801,1.6478841281057182
4.474358245205181,1.6483316758471203
4.4763592998765604,1.6601276889456504
4.478360354547941,1.6534357943053324
4.48036140921932,1.6189278106866534
4.4823624638907,1.6090317531826954
4.48436351856208,1.6089354304151917
4.48636457323346,1.5797711229706046
4.488365627904839,1.5809892059397006
4.490366682576219,1.6463240166275896
4.492367737247599,1.648582196172087
4.494368791918979,1.6136237950853358
4.496369846590358,1.6277639775412593
4.4983709012617386,1.6291261077785686
4.500371955933118,1.580485086535804
4.502373010604498,1.6166189385926582
4.5043740652758775,1.7217897543018947
4.506375119947258,1.6442203781797522
4.508376174618637,1.5775551112075856
4.510377229290017,1.716930497946559
4.512378283961397,1.7704204220076893
4.514379338632777,1.7283720504099827
4.516380393304156,1.7179134113677543
4.518381447975536,1.7275548000200236
4.520382502646916,1.8532804053344472
4.522383557318296,1.9300258753931703
4.524384611989675,1.9319499664233424
4.526385666661055,1.8021636244679358
4.528386721332435,1.6179193231343494
4.530387776003814,1.5447397276201167
4.5323888306751945,1.5295094451218725
4.534389885346574,1.638633911584931
4.536390940017954,1.6614430037978423
4.538391994689333,1.6325256462782372
4.540393049360714,1.698620135861498
4.542394104032093,1.7796489302980971
4.544395158703473,1.8862435733697085
4.546396213374853,1.9885400123260677
4.548397268046233,2.0872843639945713
4.550398322717612,2.0967616250068444
4.552399377388992,2.097338839191125
4.554400432060372,2.1301477980739527
4.556401486731752,1.9802874698053237
4.558402541403131,1.6242389626224198
4.5604035960745115,1.599237560272206
4.562404650745891,1.6629889542157281
4.564405705417271,1.6600282100590937
4.56640676008865,1.6514804063574748
4.568407814760031,1.6342668270042886
4.57040886943141,1.6417745591130122
4.57240992410279,1.6595060574473364
4.57441097877417,1.6188617614063163
4.57641203344555,1.5910220245686562
4.578413088116929,1.5911262461661237
4.580414142788309,1.6135909300042621
4.582415197459689,1.649664907612864
4.584416252131069,1.6199927158733654
4.586417306802448,1.5967241731540591
4.5884183614738285,1.6103416928979968
4.590419416145208,1.6242100875584922
4.592420470816588,1.6382888731398246
4.5944215254879675,1.6399388270883408
4.596422580159348,1.6379671874928754
4.598423634830727,1.6283064834990344
4.600424689502107,1.6231012477189
4.602425744173487,1.6229991530928092
4.604426798844867,1.6229760320724393
4.606427853516246,1.6229760320724393
4.608428908187626,1.6229760320724393
4.610429962859006,1.6109576295514523
4.612431017530385,1.5800109467134689
4.614432072201765,1.6018269059224421
4.616433126873145,1.6465707027942422
4.618434181544525,1.6465707027942422
4.620435236215904,1.6465707027942422
4.6224362908872845,1.6465707027942422
4.624437345558664,1.6465707027942422
4.626438400230044,1.6465707027942422
4.628439454901423,1.646478111928934
4.630440509572804,1.6384386588371809
4.632441564244183,1.604239501830849
4.634442618915563,1.6001771344522078
4.6364436735869425,1.6217614794587611
4.638444728258323,1.6028362527830982
4.640445782929702,1.5823689702758268
4.642446837601082,1.5931682104862122
4.644447892272462,1.5982664571218286
4.646448946943842,1.5967387702221725
4.648450001615221,1.5694266934383956
4.6504510562866015,1.5475768416975315
4.652452110957981,1.6828981638495735
4.654453165629361,1.766158622636184
4.65645422030074,1.766158622636184
4.658455274972121,1.766158622636184
4.6604563296435,1.766158622636184
4.66245738431488,1.8101201360790078
4.66445843898626,1.808109649699131
4.66645949365764,1.7022594466094594
4.668460548329019,1.6517922292748606
4.670461603000399,1.6360879815333493
4.672462657671779,1.7086706938355747
4.674463712343159,1.770392322890206
4.676464767014538,1.770392322890206
4.6784658216859185,1.7706160272740386
4.680466876357298,1.7710329136639091
4.682467931028678,1.77144980005378
4.684468985700057,1.7590490920486377
4.686470040371438,1.674823665901957
4.688471095042817,1.613115328485581
4.690472149714197,1.5779633197005136
4.692473204385577,1.5783975709405984
4.694474259056957,1.590318040449676
4.696475313728336,1.610170550276509
4.6984763683997155,1.6227299649881821
4.700477423071096,1.6234446273708178
4.702478477742475,1.6236672484404429
4.704479532413855,1.6236672484404429
4.706480587085235,1.6236672484404429
4.708481641756615,1.6236672484404429
4.710482696427994,1.6236672484404429
4.7124837510993745,1.6237296009110387
4.714484805770754,1.6238316955371295
4.716485860442134,1.623840052532444
4.718486915113513,1.6196500731573886
4.720487969784894,1.6010739347587077
4.722489024456273,1.6022988279227854
4.724490079127653,1.6208749663214712
4.7264911337990325,1.623840052532444
4.728492188470413,1.6238249635131263
4.730493243141792,1.6237228688870353
4.732494297813172,1.6236207742609445
4.734495352484552,1.6235186796348537
4.736496407155932,1.623494444348442
4.738497461827311,1.623494444348442
4.7404985164986915,1.623494444348442
4.742499571170071,1.627653819575386
4.744500625841451,1.638673658279063
4.74650168051283,1.627169189934339
4.748502735184211,1.6052999508163335
4.75050378985559,1.626934472970107
4.75250484452697,1.6324788880827712
4.7545058991983495,1.5996306928338473
4.75650695386973,1.595871159576052
4.758508008541109,1.6109375468878058
4.760509063212489,1.6215014438380906
4.762510117883869,1.6341936214208606
4.764511172555249,1.6558236691642179
4.766512227226628,1.658984432951265
4.7685132818980085,1.6457227664163405
4.770514336569388,1.6193432997301553
4.772515391240768,1.5951134771492492
4.774516445912147,1.5988408000866419
4.776517500583528,1.608451114224949
4.778518555254907,1.6252063300634467
4.780519609926287,1.7284376111581514
4.782520664597667,1.8473122148695162
4.784521719269046,1.8000116437111056
4.786522773940426,1.770392322890206
4.7885238286118055,1.770392322890206
4.790524883283186,1.770392322890206
4.792525937954565,1.770392322890206
4.794526992625945,1.7378327185633495
4.796528047297325,1.7092393784438304
4.798529101968705,1.6909676664119462
4.800530156640084,1.6656045841785823
4.802531211311464,1.6355816113531167
4.804532265982844,1.7057551140601273
4.806533320654224,1.768275472763195
4.808534375325603,1.768275472763195
4.810535429996984,1.768275472763195
4.812536484668363,1.768275472763195
4.814537539339743,1.768622783298094
4.8165385940111225,1.7547695291273226
4.818539648682503,1.6536328909446367
4.820540703353882,1.5977984758679082
4.822541758025262,1.5977984758679082
4.824542812696642,1.5836661068748836
4.826543867368022,1.5690011584095505
4.828544922039401,1.6147461019700664
4.8305459767107815,1.6435577194467963
4.832547031382161,1.6435577194467963
4.834548086053541,1.6435577194467963
4.83654914072492,1.6435577194467963
4.838550195396301,1.6435577194467963
4.84055125006768,1.6435577194467963
4.84255230473906,1.6435577194467963
4.8445533594104395,1.6362639941252564
4.84655441408182,1.624104098763562
4.848555468753199,1.6230686554371738
4.850556523424579,1.615904332823393
4.852557578095959,1.5821529284866793
4.854558632767339,1.5835884362583594
4.856559687438718,1.6172377459689913
4.8585607421100985,1.6230607162916253
4.860561796781478,1.6231488361644404
4.862562851452858,1.6231488361644404
4.864563906124237,1.6231941960778968
4.866564960795618,1.6232962907039876
4.868566015466997,1.6215956925365587
4.870567070138376,1.618376204372002
4.8725681248097565,1.6004597308284096
4.874569179481136,1.5764143776432988
4.876570234152516,1.5417765562935977
4.8785712888238955,1.5002225885702123
4.880572343495276,1.4553225500303781
4.882573398166655,1.6621721925078166
4.884574452838035,1.8074452017470093
4.886575507509415,1.7892749306758509
4.888576562180795,1.8051398747858198
4.890577616852174,1.8440584200253463
4.892578671523554,1.7610314494805779
4.894579726194934,1.6472448070233583
4.896580780866314,1.4670911349939975
4.898581835537693,1.360884678082929
4.900582890209074,1.323371292057992
4.902583944880453,1.3464240049582616
4.904584999551833,1.4095354133665543
4.9065860542232125,1.6501397767822046
4.908587108894593,1.901127860670723
4.910588163565972,2.165296518533835
4.912589218237352,1.9310189721396058
4.914590272908732,1.5408261388283717
4.916591327580112,1.3540854392719468
4.918592382251491,1.4159308972608153
4.920593436922871,1.9142039325941593
4.922594491594251,2.0548492397287843
4.924595546265631,2.0195921703748985
4.92659660093701,1.9406895101530122
4.928597655608391,1.8928297133414196
4.93059871027977,1.925293793483527
4.93259976495115,1.8419859162285288
4.9346008196225295,1.6790681588294334
4.93660187429391,1.7372797574925753
4.938602928965289,1.8116610514877791
4.940603983636669,1.8538861037317573
4.942605038308049,1.8743745670079286
4.944606092979429,1.8743745670079286
4.946607147650808,1.8747484876790863
4.9486082023221885,1.8752032728316728
4.950609256993568,1.8756580579842588
4.952610311664947,1.813205432685694
4.954611366336327,1.6697128759213449
4.956612421007707,1.6331687983014176
4.958613475679087,1.6315289185758417
4.960614530350466,1.5967414813543084
4.9626155850218465,1.5894189944565171
4.964616639693226,1.6310814632627182
4.966617694364606,1.645038433929782
4.968618749035985,1.6451426555272497
4.970619803707366,1.6451453570420544
4.972620858378745,1.6453824040653227
4.974621913050125,1.6462245145728618
4.976622967721505,1.6466296242539837
4.978624022392885,1.6467296769875526
4.980625077064264,1.6468297297211216
4.982626131735644,1.6403662503338414
4.984627186407024,1.6082493228582082
4.986628241078404,1.609118403014598
4.988629295749783,1.6415354886909466
4.9906303504211635,1.6712688217489546
4.992631405092543,1.6931167450238738
4.994632459763923,1.6643785213972024
4.9966335144353025,1.63392490820158
4.998634569106683,1.6012285086440037
5.000635623778062,1.5927533163985321
5.002636678449442,1.5935008476949155
5.004637733120822,1.6090085960038318
5.006638787792202,1.6295916462261577
5.008639842463581,1.6593712473580446
5.010640897134961,1.617203380717497
5.012641951806341,1.5384696199621508
5.014643006477721,1.5900419854752526
5.0166440611491,1.630411627061891
5.018645115820481,1.6313496214391003
5.02064617049186,1.6111215316910281
5.02264722516324,1.575894631746935
5.0246482798346195,1.5937440362585662
5.026649334506,1.6169797765077674
5.028650389177379,1.6362389067735295
5.030651443848759,1.6500829817849583
5.032652498520139,1.6586721241436488
5.034653553191519,1.6652729496060756
5.036654607862898,1.6617704258520085
5.0386556625342775,1.5890192035014485
5.040656717205658,1.6219818498822396
5.042657771877037,1.795225122071622
5.044658826548417,1.7333213046938338
5.046659881219797,1.6034022074895247
5.048660935891177,1.812882986328665
5.050661990562556,1.8663150768740207
5.0526630452339365,1.632448225793261
5.054664099905316,1.6070002556831888
5.056665154576696,1.6892114178815107
5.058666209248075,1.6505000092859758
5.060667263919456,1.5993145703512477
5.062668318590835,1.526102906653198
5.064669373262215,1.554431460756104
5.066670427933595,1.6557991081951475
5.068671482604975,1.5769268731936692
5.070672537276354,1.5099377420491682
5.072673591947734,1.5835662921371212
5.074674646619114,1.7416650779863518
5.076675701290494,1.9829380761241489
5.078676755961873,2.095691009950209
5.0806778106332535,2.16774808778251
5.082678865304633,2.159618803180031
5.084679919976013,2.084254123326755
5.086680974647392,1.9183333401582012
5.088682029318773,1.8561661595335073
5.090683083990152,1.8260226645110609
5.092684138661532,1.663016582824556
5.094685193332912,1.5841521442938893
5.096686248004292,1.6626962888470223
5.098687302675671,1.6251945978870665
5.100688357347051,1.5267728670633895
5.102689412018431,1.5847404074546199
5.104690466689811,1.6290469558426586
5.10669152136119,1.6204029441669738
5.1086925760325705,1.6175222105025167
5.11069363070395,1.618849440641697
5.11269468537533,1.6287095663379672
5.1146957400467095,1.637459500027527
5.11669679471809,1.6369383920401883
5.118697849389469,1.621369937346735
5.120698904060849,1.5907678153532527
5.122699958732229,1.5837801670970697
5.124701013403608,1.5865871938888636
5.126702068074988,1.6214707756295335
5.1287031227463675,1.6416172734970362
5.130704177417748,1.6416172734970362
5.132705232089127,1.6525060031315129
5.134706286760507,1.6664098995332244
5.136707341431887,1.6541177065518928
5.138708396103267,1.6460626587637595
5.140709450774646,1.6460626587637595
5.1427105054460265,1.646127904611844
5.144711560117406,1.6462279573454128
5.146712614788786,1.6016070630840846
5.148713669460165,1.5763431074931236
5.150714724131546,1.609416724636616
5.152715778802925,1.623494444348442
5.154716833474305,1.623494444348442
5.1567178881456845,1.623494444348442
5.158718942817065,1.6235137582931687
5.160719997488444,1.6236158529192595
5.162721052159824,1.6302378524364307
5.164722106831204,1.6434693159777976
5.166723161502584,1.6460626587637595
5.168724216173963,1.6445884847903043
5.1707252708453435,1.6313570212489314
5.172726325516723,1.6096930240646417
5.174727380188103,1.5763278564181715
5.176728434859482,1.654683018553288
5.178729489530863,1.7710979395992095
5.180730544202242,1.7710979395992095
5.182731598873622,1.7712401245889335
5.184732653545002,1.7716570109788043
5.186733708216382,1.7720738973686754
5.188734762887761,1.7724907837585462
5.190735817559141,1.772509173017217
5.192736872230521,1.7514001706966473
5.194737926901901,1.671229711106106
5.19673898157328,1.6506537470582738
5.1987400362446605,1.6749042402154641
5.20074109091604,1.6572405739086393
5.20274214558742,1.653002966232663
5.204743200258799,1.7332375621908411
5.20674425493018,1.7739204064352243
5.208745309601559,1.7739204064352243
5.210746364272938,1.7739204064352243
5.212747418944319,1.773965336891977
5.214748473615698,1.7743822232818478
5.216749528287078,1.7482822536601397
5.2187505829584575,1.6848321451218133
5.220751637629838,1.6672311600338696
5.222752692301217,1.6657724311931457
5.224753746972597,1.6171702384540316
5.226754801643977,1.5973836150120915
5.228755856315357,1.6341795851900511
5.230756910986736,1.6257246929626308
5.2327579656581165,1.59234672348652
5.234759020329496,1.622537165181818
5.236760075000876,1.6472480948348855
5.238761129672255,1.6472480948348855
5.240762184343636,1.6350779014496493
5.242763239015015,1.6136165900991037
5.244764293686395,1.6105864275966206
5.2467653483577745,1.6141908389607396
5.248766403029155,1.6357368103166166
5.250767457700534,1.629700488751799
5.252768512371914,1.594877071508586
5.254769567043294,1.615543083105851
5.256770621714674,1.6467400508044028
5.258771676386053,1.6467400508044028
5.2607727310574335,1.646781227577427
5.262773785728813,1.646881280310996
5.264774840400193,1.6469093988145638
5.266775895071572,1.6469067598611544
5.268776949742953,1.6468067071275854
5.270778004414332,1.6467066543940165
5.272779059085712,1.6466066016604477
5.2747801137570915,1.6465707027942422
5.276781168428472,1.6465707027942422
5.278782223099851,1.6156328283922439
5.280783277771231,1.602527833369904
5.282784332442611,1.6461127214150089
5.284785387113991,1.6652552784894867
5.28678644178537,1.6654594677416683
5.2887874964567505,1.6526606945968603
5.29078855112813,1.6385796333765705
5.29278960579951,1.6274768427891948
5.294790660470889,1.6117590162433075
5.296791715142269,1.5911539184716894
5.298792769813649,1.6036369726631972
5.300793824485028,1.623726377084023
5.302794879156409,1.6346313593333506
5.304795933827788,1.6296141904461936
5.306796988499168,1.6014859393074026
5.3087980431705475,1.6098568520282006
5.310799097841928,1.632208121986296
5.312800152513307,1.6311328426082845
5.314801207184687,1.6585423274869395
5.316802261856067,1.7437452803408435
5.318803316527447,1.6904765479698867
5.320804371198826,1.558490316936811
5.322805425870206,1.6739817241860122
5.324806480541586,1.7710979395992095
5.326807535212966,1.7710979395992095
5.328808589884345,1.726254427144771
5.330809644555726,1.6461481039218813
5.332810699227105,1.6627736338774797
5.334811753898485,1.6830969524415431
5.3368128085698645,1.6508901965992748
5.338813863241245,1.6727916168640131
5.340814917912624,1.7528338037191948
5.342815972584004,1.7696867061812023
5.344817027255384,1.7696867061812023
5.346818081926764,1.7696867061812023
5.348819136598143,1.7698552427890217
5.3508201912695235,1.7702721291788928
5.352821245940903,1.6981773249293282
5.354822300612283,1.598645215918713
5.356823355283662,1.598645215918713
5.358824409955043,1.5900063956568105
5.360825464626422,1.563548504631873
5.362826519297802,1.5961867937616214
5.3648275739691815,1.6629516431672111
5.366828628640562,1.6668682714406677
5.368829683311941,1.6438448401415617
5.370830737983321,1.5512881208971006
5.372831792654701,1.5164272919458566
5.374832847326081,1.5276099535311216
5.37683390199746,1.529135555384497
5.37883495666884,1.529135555384497
5.38083601134022,1.529135555384497
5.382837066011599,1.5184822695781992
5.384838120682979,1.4962136616998085
5.386839175354359,1.4385657095642723
5.388840230025739,1.38289716655464
5.390841284697118,1.4402810052320734
5.3928423393684985,1.647425313001592
5.394843394039878,2.07861536227304
5.396844448711258,1.912391005922789
5.3988455033826375,1.5058644259790688
5.400846558054018,1.483338710879864
5.402847612725397,1.4633734946287589
5.404848667396777,1.4487781132858255
5.406849722068157,1.4952231225674555
5.408850776739537,1.5774732094665884
5.410851831410916,1.4415119714531857
5.412852886082296,1.3620800931134116
5.414853940753676,1.501396782212299
5.416854995425056,1.5441060461666247
5.418856050096435,1.5085752225963833
5.420857104767816,1.5274634880785531
5.422858159439195,1.571648303847907
5.424859214110575,1.6975959471253903
5.4268602687819545,1.782903218298222
5.428861323453335,1.8232491582633925
5.430862378124714,1.656660874459301
5.432863432796094,1.4575527876292178
5.434864487467474,1.5136130363723619
5.436865542138854,1.5079671007737425
5.438866596810233,1.4085956205735783
5.440867651481613,1.445599087670351
5.442868706152993,1.539057961846408
5.444869760824373,1.5680784252653297
5.446870815495752,1.6637853954791466
5.448871870167133,1.9016999165077846
5.450872924838512,1.9544246458667291
5.452873979509892,1.896814963788209
5.4548750341812715,1.9137389433737382
5.456876088852652,1.9483652366117705
5.458877143524031,2.0220707503408977
5.460878198195411,2.0769735476986875
5.462879252866791,2.11642291122017
5.46488030753817,1.8859186575281788
5.46688136220955,1.6529755549295024
5.46888241688093,1.6389962654220769
5.47088347155231,1.6983201661574674
5.472884526223689,1.8399332659781735
5.474885580895069,1.8712955122777306
5.476886635566449,1.8841706474671678
5.478887690237829,2.0339718235607864
5.480888744909208,2.1274421337956766
5.4828897995805885,2.134039178070476
5.484890854251968,1.9408741291304359
5.486891908923348,1.6646909398814562
5.4888929635947274,1.6646909398814562
5.490894018266108,1.6344747133489264
5.492895072937487,1.5387319436875608
5.494896127608867,1.5561961263990505
5.496897182280247,1.6421629102179722
5.498898236951627,1.6484351385442957
5.500899291623006,1.645805464470305
5.502900346294386,1.633746803895212
5.504901400965766,1.6282050662735974
5.506902455637146,1.6280986271953326
5.508903510308525,1.6280829444934872
5.5109045649799056,1.630013562536089
5.512905619651285,1.6420744405919738
5.514906674322665,1.6425937129544248
5.5169077289940445,1.6299658838898197
5.518908783665425,1.5856865906638258
5.520909838336804,1.538182413076524
5.522910893008184,1.5572348086124093
5.524911947679564,1.5689044384921385
5.526913002350944,1.5690131914634091
5.528914057022323,1.5691219444346796
5.530915111693703,1.5693327408942293
5.532916166365083,1.5918808569376728
5.534917221036463,1.6156206439258705
5.536918275707842,1.6419887080851876
5.538919330379223,1.652089671940175
5.540920385050602,1.6521938935376428
5.542921439721982,1.6635581599338811
5.5449224943933615,1.6577402199471603
5.546923549064742,1.5928294483869032
5.548924603736121,1.5955218226076882
5.5509256584075,1.6554299574894844
5.552926713078881,1.623891915159028
5.55492776775026,1.5891305041950654
5.55692882242164,1.6246761996137562
5.5589298770930196,1.6494109608994827
5.5609309317644,1.661649554202122
5.562931986435779,1.655839422155004
5.564933041107159,1.6465211857398927
5.566934095778539,1.6588072530436588
5.568935150449919,1.6660345218748018
5.570936205121298,1.6652177648660755
5.5729372597926785,1.6561405174836805
5.574938314464058,1.6434822073448692
5.576939369135438,1.7075026607847148
5.578940423806817,1.7293560075300403
5.580941478478198,1.6566132343899023
5.582942533149577,1.623234767795924
5.584943587820957,1.614422652037618
5.586944642492337,1.8043548191156564
5.588945697163717,1.9408045538455814
5.590946751835096,1.8435509146086189
5.592947806506476,1.7540507176512432
5.594948861177856,1.6712094364640724
5.596949915849236,1.630307229425856
5.598950970520615,1.6076684505023986
5.6009520251919955,1.6437641946209274
5.602953079863375,1.6466367527022086
5.604954134534755,1.6105410085836702
5.6069551892061344,1.6577506574121368
5.608956243877515,1.728050478768797
5.610957298548894,1.7721121633597505
5.612958353220274,1.7814411611562897
5.614959407891654,1.7346857491230947
5.616960462563034,1.8187503149632238
5.618961517234413,1.9616278174608632
5.620962571905793,1.8006206941325233
5.622963626577173,1.6841828708923434
5.624964681248553,1.6713535604744054
5.626965735919932,1.6683130225112048
5.6289667905913126,1.6714759190977004
5.630967845262692,1.6785628108069088
5.632968899934072,1.6794748952873833
5.6349699546054515,1.6581803384927916
5.636971009276831,1.6400081911553896
5.638972063948211,1.6245571904428022
5.64097311861959,1.6315490528139716
5.642974173290971,1.641451827042994
5.64497522796235,1.6438906124237371
5.64697628263373,1.6438169321620626
5.6489773373051095,1.6407528171965127
5.65097839197649,1.6201307925956028
5.652979446647869,1.596179591987277
5.654980501319249,1.5994762662338613
5.656981555990629,1.61057611386204
5.658982610662009,1.6344720417294414
5.660983665333388,1.6419700818515381
5.6629847200047685,1.6419700818515381
5.664985774676148,1.6567894526560207
5.666986829347528,1.6636627378915039
5.668987884018907,1.6518667247929768
5.670988938690288,1.6472480948348855
5.672989993361667,1.6472480948348855
5.674991048033047,1.6472480948348855
5.676992102704427,1.6367559958586075
5.678993157375807,1.5897659232540504
5.680994212047186,1.592650716251596
5.682995266718566,1.6396407888561653
5.684996321389946,1.6472480948348855
5.686997376061326,1.6472335350919378
5.688998430732705,1.647133482358369
5.6909994854040855,1.6470334296248
5.693000540075465,1.6469333768912309
5.695001594746845,1.6469854734714657
5.697002649418224,1.6470787468247248
5.699003704089605,1.6470787468247248
5.701004758760984,1.6470787468247248
5.703005813432364,1.6470787468247248
5.705006868103744,1.6159545999955447
5.707007922775124,1.5703569991445328
5.709008977446503,1.628442976643992
5.711010032117883,1.66995149829662
5.713011086789263,1.6698223979952407
5.715012141460643,1.7434333387753211
5.717013196132022,1.8652248026379217
5.7190142508034025,1.8759140943730273
5.721015305474782,1.8760139857912626
5.723016360146161,1.8764687709438486
5.7250174148175415,1.8766838580555767
5.727018469488921,1.8766838580555767
5.729019524160301,1.7584243663814272
5.73102057883168,1.640441252454132
5.733021633503061,1.6660088591135938
5.73502268817444,1.6909485937099804
5.73702374284582,1.7151187401804968
5.7390247975171995,1.7906013426150968
5.74102585218858,1.8766838580555767
5.743026906859959,1.8766838580555767
5.745027961531339,1.8538169269227545
5.747029016202719,1.7922693362727475
5.749030070874099,1.772509173017217
5.751031125545478,1.772509173017217
5.7530321802168585,1.6933467351461797
5.755033234888238,1.6366191683918077
5.757034289559618,1.6364577930150834
5.759035344230997,1.6144455871507482
5.761036398902378,1.577937784964422
5.763037453573757,1.5997341477886475
5.765038508245137,1.6246304153643056
5.7670395629165165,1.6394892672455559
5.769040617587897,1.6465707027942422
5.771041672259276,1.6465707027942422
5.773042726930656,1.6367535632628964
5.775043781602036,1.6281907063322967
5.777044836273416,1.6399066852513955
5.779045890944795,1.6464459439968586
5.7810469456161755,1.646545996730428
5.783048000287555,1.6353809534921244
5.785049054958935,1.6198029738070685
5.787050109630314,1.5930541817712809
5.789051164301695,1.5859868565449107
5.791052218973074,1.6127356485806983
5.793053273644454,1.6214207952444313
5.795054328315834,1.6214207952444313
5.797055382987214,1.6214207952444313
5.799056437658593,1.6214504161500456
5.801057492329973,1.6215525107761364
5.803058547001353,1.621593599336432
5.805059601672733,1.621593599336432
5.807060656344112,1.621593599336432
5.809061711015492,1.621290054695513
5.811062765686872,1.6198607299302417
5.813063820358251,1.6134556009959893
5.815064875029631,1.6024534036431413
5.817065929701011,1.6011099410510494
5.819066984372391,1.6032760795893888
5.82106803904377,1.6150332967300014
5.823069093715151,1.6171485135287076
5.82507014838653,1.6070921928587645
5.82707120305791,1.6124149720993821
5.8290722577292895,1.6229222300461201
5.83107331240067,1.6341356231450972
5.833074367072049,1.6412265017502783
5.835075421743429,1.6411222801528105
5.837076476414809,1.6270710329529603
5.839077531086189,1.6062020792636544
5.841078585757568,1.6061885380822691
5.8430796404289485,1.600633613540823
5.845080695100328,1.5801682816744467
5.847081749771708,1.6785468516189646
5.849082804443087,1.8581869868905372
5.851083859114468,1.8759140943730273
5.853084913785847,1.8759140943730273
5.855085968457227,1.8759140943730273
5.8570870231286065,1.8759140943730273
5.859088077799987,1.8759140943730273
5.861089132471366,1.8001943656745307
5.863090187142746,1.7168818019511627
5.865091241814126,1.690831786725815
5.867092296485506,1.6874386841310436
5.869093351156885,1.7130718129665274
5.8710944058282655,1.7881297021610314
5.873095460499645,1.875144330690478
5.875096515171025,1.875144330690478
5.877097569842404,1.875144330690478
5.879098624513785,1.875144330690478
5.881099679185164,1.875144330690478
5.883100733856544,1.875144330690478
5.8851017885279235,1.7566246106561374
5.887102843199304,1.66944196600209
5.889103897870683,1.6692752114461418
5.891104952542063,1.634397534446038
5.893106007213443,1.575425449801739
5.895107061884822,1.6105936963488148
5.897108116556202,1.6470787468247248
5.899109171227582,1.6470787468247248
5.901110225898962,1.6470787468247248
5.903111280570341,1.6470787468247248
5.905112335241721,1.6470787468247248
5.907113389913101,1.6485934800821092
5.909114444584481,1.6604895459142104
5.91111549925586,1.6618246613427492
5.913116553927241,1.6494283318427996
5.91511760859862,1.6463062614629538
5.91711866327,1.6440918879862936
5.9191197179413795,1.5974999844234992
5.92112077261276,1.5842085947258366
5.923121827284139,1.6309005510222
5.925122881955519,1.6367664179603172
5.927123936626899,1.6220096607051577
5.929124991298279,1.6214943832309496
5.931126045969658,1.621620341721438
5.933127100641038,1.6223350041040738
5.935128155312418,1.6373204806449015
5.937129209983798,1.6623619029762884
5.939130264655177,1.651090777412538
5.941131319326558,1.6353975767984248
5.943132373997937,1.6192346462358522
5.945133428669317,1.5827604262901056
5.9471344833406965,1.5266828171273774
5.949135538012077,1.5250012187473927
5.951136592683456,1.5475806422942813
5.953137647354836,1.6553032252439066
5.955138702026216,1.7331253131325317
5.957139756697596,1.7714901021590894
5.959140811368975,1.732834448950269
5.9611418660403555,1.667547209860513
5.963142920711735,1.6155247941699267
5.965143975383115,1.5837534520441872
5.967145030054494,1.5890439202263367
5.969146084725875,1.6000565085226708
5.971147139397254,1.614006950642244
5.973148194068634,1.5580629509351744
5.9751492487400135,1.5504611969200706
5.977150303411393,1.675978317138589
5.979151358082773,1.754458577117148
5.981152412754152,1.79929390664315
5.983153467425533,1.9706812101232485
5.985154522096912,2.0886136667757285
5.987155576768292,1.92661161567193
5.989156631439672,1.8248057222216525
5.991157686111052,1.7819498013429216
5.993158740782431,1.7735816269997084
5.995159795453811,1.7644361747126516
5.997160850125191,1.6913143019293433
5.999161904796571,1.6602118873234424
6.00116295946795,1.6853887257445728
6.0031640141393305,1.7027885437738366
6.00516506881071,1.7206458623381804
6.00716612348209,1.8123987668724992
6.0091671781534695,1.87206527596028
6.01116823282485,1.87206527596028
6.013169287496229,1.87206527596028
6.015170342167609,1.87206527596028
6.017171396838989,1.87206527596028
6.019172451510369,1.8333805609765115
6.021173506181748,1.6911269016968575
6.023174560853128,1.631288504773862
6.025175615524508,1.631288504773862
6.027176670195888,1.596697923516544
6.029177724867267,1.5745908965005009
6.031178779538648,1.6226189878562178
6.033179834210027,1.6531903946200095
6.035180888881407,1.6664159026415268
6.0371819435527865,1.6582491756822313
6.039182998224167,1.6465707027942422
6.041184052895546,1.6465707027942422
6.043185107566926,1.6465707027942422
6.045186162238306,1.6465707027942422
6.047187216909686,1.6465707027942422
6.049188271581065,1.6447958673432572
6.051189326252445,1.5988798302051634
6.053190380923825,1.5847784127371234
6.055191435595205,1.630794502608786
6.057192490266584,1.6467400508044028
6.059193544937965,1.6467400508044028
6.061194599609344,1.6467400508044028
6.063195654280723,1.6467668953304626
6.0651967089521035,1.6468669480640317
6.067197763623483,1.6469093988145638
6.069198818294863,1.6469093988145638
6.071199872966242,1.6469093988145638
6.073200927637623,1.649136793418485
6.075201982309002,1.660826628105878
6.077203036980382,1.6366613711187181
6.079204091651762,1.5763463230733703
6.081205146323142,1.5820922940028765
6.083206200994521,1.6026917993334258
6.085207255665901,1.6145470273150908
6.087208310337281,1.6259967144565757
6.089209365008661,1.636886807906265
6.09121041968004,1.6420129269284411
6.0932114743514205,1.6449052501978074
6.0952125290228,1.6457056720663592
6.09721358369418,1.6460607022983007
6.099214638365559,1.6455604386304559
6.10121569303694,1.6454502850752168
6.103216747708319,1.6455503378087857
6.105217802379699,1.6413768384687681
6.107218857051079,1.640196540015271
6.109219911722459,1.6478626175178974
6.111220966393838,1.682147010027874
6.113222021065218,1.7363422407110798
6.115223075736598,1.6970946877932886
6.117224130407978,1.6897680171457032
6.119225185079357,1.8770095613961688
6.1212262397507375,1.9497920264217705
6.123227294422117,1.9054829586983664
6.125228349093497,1.8532478767420544
6.1272294037648765,1.7960986982108058
6.129230458436257,1.7148379203698332
6.131231513107636,1.6696015161741613
6.133232567779016,1.6748228318331635
6.135233622450396,1.7128604304823074
6.137234677121776,1.7643123885647818
6.139235731793155,1.8436124260226112
6.141236786464535,1.8772509779673041
6.143237841135915,1.8217730199306597
6.145238895807295,1.7580319447584962
6.147239950478674,1.6897667984171807
6.149241005150054,1.79627130971603
6.151242059821434,1.8531090403578532
6.153243114492813,1.7452733000295042
6.1552441691641935,1.6986376708967477
6.157245223835573,1.6984651661836978
6.159246278506953,1.6909509975967392
6.161247333178332,1.678824985579018
6.163248387849713,1.650783638891538
6.165249442521092,1.6465218276240396
6.167250497192472,1.6669431300455109
6.1692515518638515,1.659116913585009
6.171252606535232,1.6444576790604575
6.173253661206611,1.632455274668794
6.175254715877991,1.624056531483617
6.177255770549371,1.6207814960270575
6.179256825220751,1.6207480571216228
6.18125787989213,1.6222761675684243
6.1832589345635105,1.6344233011018572
6.18525998923489,1.631766587856591
6.18726104390627,1.599743220621547
6.189262098577649,1.6088070615215728
6.19126315324903,1.6407262071591409
6.193264207920409,1.6422238820581956
6.195265262591789,1.6421196604607278
6.197266317263169,1.6420154388632602
6.199267371934549,1.635401274609541
6.201268426605928,1.6237709951207013
6.203269481277308,1.6222848157044358
6.205270535948688,1.6222848157044358
6.207271590620068,1.6222848157044358
6.209272645291447,1.6222848157044358
6.2112736999628275,1.6222848157044358
6.213274754634207,1.5990107379468368
6.215275809305587,1.5771959202401904
6.217276863976966,1.621340325102413
6.219277918648347,1.6474174428450465
6.221278973319726,1.6474174428450465
6.223280027991106,1.6474174428450465
6.225281082662486,1.647130053860078
6.227282137333866,1.635206122200617
6.229283192005245,1.6311549299303005
6.231284246676625,1.6429788088561925
6.233285301348005,1.6472480948348855
6.235286356019384,1.6472480948348855
6.237287410690764,1.65976375108526
6.239288465362144,1.6537380612545356
6.241289520033524,1.5910977899780285
6.243290574704903,1.6668960993533966
6.2452916293762835,1.8509547250407965
6.247292684047663,1.875144330690478
6.249293738719043,1.8752243679137846
6.251294793390422,1.8756791530663706
6.253295848061803,1.8759140943730273
6.255296902733182,1.8759140943730273
6.257297957404562,1.8759140943730273
6.2592990120759415,1.8668829174548167
6.261300066747322,1.7749405191069445
6.263301121418701,1.7086966675899682
6.265302176090081,1.6801075253868198
6.267303230761461,1.6928839610225523
6.269304285432841,1.7235878162692173
6.27130534010422,1.815606012142504
6.2733063947756005,1.8774536217381261
6.27530744944698,1.8774536217381261
6.27730850411836,1.8774536217381261
6.279309558789739,1.8774536217381261
6.28131061346112,1.8770248952163837
6.283311668132499,1.8461918130592985
6.285312722803879,1.7242790731559543
6.2873137774752585,1.6703358735534857
6.289314832146639,1.6703358735534857
6.291315886818018,1.6240714162735328
6.293316941489398,1.5841626720998851
6.295317996160778,1.6094664669497232
6.297319050832158,1.6226304238884375
6.299320105503537,1.6226304238884375
6.3013211601749175,1.6226304238884375
6.303322214846297,1.6226400808608008
6.305323269517677,1.6227421754868916
6.307324324189056,1.6274811760460264
6.309325378860437,1.639117836449005
6.311326433531816,1.6424992943832908
6.313327488203196,1.6424992943832908
6.315328542874576,1.6424992943832908
6.317329597545956,1.6316581526970164
6.319330652217335,1.5982224296001062
6.3213317068887145,1.607026105667915
6.323332761560095,1.6404618287648312
6.325333816231474,1.6424992943832908
6.327334870902854,1.645972428749629
6.329335925574234,1.6600636141215352
6.331336980245614,1.6664064081662924
6.333338034916993,1.6665085027923832
6.335339089588373,1.6665226632566659
6.337340144259753,1.6605423813385456
6.339341198931133,1.6250959125030935
6.341342253602512,1.6176956105839888
6.343343308273893,1.6411541284238642
6.345344362945272,1.6205613996175234
6.347345417616652,1.5937584847746047
6.3493464722880315,1.6265209137571344
6.351347526959412,1.6462320067739202
6.353348581630791,1.6462320067739202
6.355349636302171,1.6462320067739202
6.357350690973551,1.6462320067739202
6.359351745644931,1.6462320067739202
6.36135280031631,1.6462320067739202
6.3633538549876905,1.6462320067739202
6.36535490965907,1.6544658766192333
6.36735596433045,1.6675768685018153
6.369357019001829,1.656907890934044
6.37135807367321,1.6392537035784758
6.373359128344589,1.6049382374333183
6.375360183015969,1.5850116569800978
6.3773612376873485,1.5768459095428526
6.379362292358729,1.6237885270135668
6.381363347030108,1.6907904165952001
6.383364401701488,1.8129911870951503
6.385365456372868,1.8235517256488456
6.387366511044248,1.7094706192961955
6.389367565715627,1.7733332122566905
6.3913686203870075,1.8774536217381261
6.393369675058387,1.8774536217381261
6.395370729729767,1.841131750879529
6.397371784401146,1.7491135550062427
6.399372839072527,1.7028286587002468
6.401373893743906,1.6764583400431305
6.403374948415285,1.7033421280482266
6.4053760030866655,1.7508710648865031
6.407377057758045,1.8428892607597898
6.409378112429425,1.8774536217381261
6.4113791671008045,1.8774536217381261
6.413380221772185,1.8774536217381261
6.415381276443564,1.8774536217381261
6.417382331114944,1.8774536217381261
6.419383385786324,1.8105660523351388
6.421384440457704,1.6881985272792401
6.423385495129083,1.6703358735534857
6.425386549800463,1.6617008144922871
6.427387604471843,1.6082120965329914
6.429388659143223,1.5978530155354917
6.431389713814602,1.6363546677789484
6.433390768485983,1.6347239585169622
6.435391823157362,1.622638966594759
6.437392877828742,1.6227410612208497
6.4393939325001215,1.6228032279804383
6.441394987171502,1.6228032279804383
6.443396041842881,1.6228032279804383
6.445397096514261,1.622881263358675
6.447398151185641,1.636081247723664
