Time_Seconds,Voltage_mV,Confidence_Score
0.0,-0.46904886732779394,0.5
0.002000918203292494,-0.5941062550335747,0.5
0.004001836406584988,-0.6807159573286405,0.5
0.006002754609877482,-0.6807159573286405,0.5
0.008003672813169976,-0.45002984486435027,0.5
0.01000459101646247,-0.07485768174700747,0.5
0.012005509219754964,-0.041100965076815044,0.5
0.014006427423047457,-0.05448801608831433,0.5
0.01600734562633995,-0.12952244871178298,0.5
0.018008263829632446,-0.16424825772657492,0.5
0.02000918203292494,-0.16424825772657492,0.5
0.022010100236217432,-0.16424825772657492,0.5
0.024011018439509927,-0.15283684424850863,0.5
0.026011936642802422,-0.07780241162504042,0.5
0.028012854846094913,-0.1122420575018439,0.36425214265966266
0.030013773049387408,-0.27544194845788805,0.06884158142106694
0.0320146912526799,-0.34718346898375163,0.0
0.034015609455972394,-0.3985060206926896,0.021979541056124027
0.03601652765926489,-0.5415143542587377,0.31739010229472026
0.038017445862557384,-0.6413764260645629,0.5
0.04001836406584988,-0.6713901991139504,0.5
0.04201928226914237,-0.6807159573286405,0.5
0.044020200472434864,-0.6807159573286405,0.5
0.04602111867572736,-0.737998738454313,0.20555709151230211
0.048022036879019854,-0.7072551881398574,0.08985346972629268
0.050022955082312345,-0.4747038109547872,0.3852640309648879
0.052023873285604844,-0.6962483641702537,0.31932540779651586
0.054024791488897335,-1.2061629420471143,0.023914846557920644
0.056025709692189826,-1.560355462080238,0.2714957146806746
0.058026627895482324,-1.8826315673159761,0.5
0.060027546098774816,-2.142750933744,0.5
0.062028464302067314,-2.263985790534974,0.5
0.0640293825053598,-2.263985790534974,0.5
0.0660303007086523,-1.9080486291781913,0.25145147912634613
0.06803121891194479,-1.6012295485485009,0.043959082112248055
0.07003213711523729,-1.95924626635164,0.3393696433508443
0.07203305531852978,-1.8268191564589722,0.36521979541055943
0.07403397352182227,-1.1098836078150112,0.06980923417196522
0.07603489172511477,-0.318999192688727,0.22560132706663102
0.07803580992840727,0.4368862778758298,0.5
0.08003672813169976,0.4368862778758298,0.5
0.08203764633499225,0.49369756097586404,0.5
0.08403856453828475,0.6437664262228013,0.5
0.08603948274157724,-0.3763460554361471,0.5
0.08804040094486973,-1.9320599584960538,0.5
0.09004131914816223,-0.5706631153447783,0.5
0.09204223735145473,0.11158725846384865,0.5
0.09404315555474721,-0.8288442970836156,0.5
0.09604407375803971,-1.1971836569307066,0.5
0.0980449919613322,-1.1971836569307066,0.5
0.10004591016462469,-0.5924981235342051,0.5
0.10204682836791719,-0.14210894517774486,0.5
0.10404774657120969,-0.42223749363869434,0.5
0.10604866477450217,-0.5643335846689546,0.5
0.10804958297779467,-0.5843427667018797,0.5
0.11005050118108717,-0.8517022360812199,0.5
0.11205141938437965,-1.0959133606199543,0.46560685663904505
0.11405233758767215,-0.9236468090552408,0.22927840852856013
0.11605325579096465,-0.8417506057273081,0.10000000149011612
0.11805417399425715,-0.8689896679869737,0.10000000149011612
0.12005509219754963,-0.9857964391604184,0.5043406145889736
0.12205601040084213,-1.1105070063050047,0.9639203760619454
0.12405692860413463,-0.9561050979762307,0.43218136671286633
0.12605784680742713,-0.8331153637547515,0.2995576456164465
0.1280587650107196,-0.76241397421312,0.8312966549655262
0.1300596832140121,-0.6955847364902152,1.0
0.1320606014173046,-0.6305548948832089,1.0
0.1340615196205971,-0.6299158557284374,1.0
0.13606243782388958,-0.6284271051700681,1.0
0.1380633560271821,-0.6234248096618371,1.0
0.14006427423047457,-0.6244758301032016,1.0
0.14206519243376706,-0.6294781256114326,1.0
0.14406611063705957,-0.6299158557284374,1.0
0.14606702884035205,-0.6299158557284374,1.0
0.14806794704364454,-0.6299158557284374,1.0
0.15006886524693705,-0.6299158557284374,1.0
0.15206978345022953,-0.6299158557284374,1.0
0.15407070165352202,-0.6299158557284374,1.0
0.15607161985681453,-0.6299158557284374,1.0
0.15807253806010702,-0.6299158557284374,1.0
0.16007345626339953,-0.609670252616274,1.0
0.162074374466692,-0.5646495930421929,1.0
0.1640752926699845,-0.5537157033281326,1.0
0.166076210873277,-0.5537157033281326,1.0
0.1680771290765695,-0.5537157033281326,1.0
0.17007804727986198,-0.5537157033281326,1.0
0.1720789654831545,-0.5537157033281326,1.0
0.17407988368644697,-0.5537157033281326,1.0
0.17608080188973946,-0.5537157033281326,1.0
0.17808172009303197,-0.5537157033281326,1.0
0.18008263829632445,-0.5684393527182943,1.0
0.18208355649961694,-0.6184623078006064,1.0
0.18408447470290945,-0.6353722669730266,1.0
0.18608539290620194,-0.6303699714647952,1.0
0.18808631110949442,-0.6299158557284374,1.0
0.19008722931278693,-0.6299158557284374,1.0
0.19208814751607942,-0.6299158557284374,1.0
0.1940890657193719,-0.6299158557284374,1.0
0.1960899839226644,-0.6299158557284374,1.0
0.1980909021259569,-0.6257562492155095,1.0
0.20009182032924938,-0.6214491721284037,1.0
0.2020927385325419,-0.6214491721284037,1.0
0.20409365673583438,-0.6214491721284037,1.0
0.20609457493912686,-0.6214491721284037,1.0
0.20809549314241937,-0.6252202053823863,1.0
0.21009641134571186,-0.6299158557284374,1.0
0.21209732954900434,-0.6299158557284374,1.0
0.21409824775229686,-0.6280713031498291,1.0
0.21609916595558934,-0.6230690076415977,1.0
0.21810008415888182,-0.6214491721284037,1.0
0.22010100236217434,-0.6214491721284037,1.0
0.22210192056546682,-0.6214491721284037,1.0
0.2241028387687593,-0.6214491721284037,1.0
0.22610375697205182,-0.6214491721284037,1.0
0.2281046751753443,-0.6214491721284037,1.0
0.2301055933786368,-0.6214491721284037,1.0
0.2321065115819293,-0.6803624961111674,1.0
0.23410742978522178,-0.7304486528681262,1.0
0.2361083479885143,-0.7254463573598948,1.0
0.23810926619180678,-0.7230493753288099,1.0
0.24011018439509926,-0.7230493753288099,1.0
0.24211110259839178,-0.7271925962223849,1.0
0.24411202080168426,-0.7566328725944151,1.0
0.24611293900497674,-0.9417178063989708,1.0
0.24811385720826926,-1.004882028202482,0.7643627319356112
0.25011477541156174,-0.9148407090543214,0.2326237225865403
0.25211569361485425,-0.93743881894504,0.4991152897427769
0.2541166118181467,-0.9925319528157601,1.0
0.2561175300214392,-0.967520475274604,1.0
0.25811844822473173,-0.9516498325297245,1.0
0.2601193664280242,-0.9516498325297245,1.0
0.2621202846313167,-0.9348194606513047,1.0
0.2641212028346092,-0.9098079831101487,1.0
0.26612212103790167,-0.8995084509453304,1.0
0.2681230392411942,-0.8923830473294876,1.0
0.2701239574444867,-0.8923830473294876,1.0
0.27212487564777915,-0.8953605484462259,1.0
0.27412579385107166,-0.9003628439544573,1.0
0.2761267120543642,-0.9008497309295214,1.0
0.27812763025765663,-0.9019007513708859,1.0
0.28012854846094914,-0.9069030468791168,1.0
0.28212946666424166,-0.9067274866717621,1.0
0.2841303848675341,-0.9017251911635311,1.0
0.2861313030708266,-0.9008497309295214,1.0
0.28813222127411914,-0.8920309028135662,0.9295825270726142
0.2901331394774116,-0.8254378438602399,0.39784351772355064
0.2921340576807041,-0.7753302541279652,0.10000000149011612
0.2941349758839966,-0.7462153310527126,0.10000000149011612
0.2961358940872891,-0.7189366831666053,0.10000000149011612
0.2981368122905816,-0.6886613459817195,0.12911252563324235
0.3001377304938741,-0.5959283619653575,0.6608515349823294
0.30213864869716656,-0.5349705547881629,1.0
0.30413956690045907,-0.5299682592799315,1.0
0.3061404851037516,-0.5283156525280313,1.0
0.30814140330704404,-0.5283156525280313,1.0
0.31014232151033655,-0.5429784410463094,1.0
0.31214323971362906,-0.5537157033281326,1.0
0.3141441579169215,-0.5537157033281326,1.0
0.31614507612021403,-0.5537157033281326,1.0
0.31814599432350654,-0.5537157033281326,1.0
0.32014691252679905,-0.5537157033281326,1.0
0.3221478307300915,-0.5537157033281326,1.0
0.324148748933384,-0.5537157033281326,1.0
0.32614966713667654,-0.5537157033281326,1.0
0.328150585339969,-0.5537157033281326,1.0
0.3301515035432615,-0.5537157033281326,1.0
0.332152421746554,-0.5537157033281326,1.0
0.3341533399498465,-0.5537157033281326,1.0
0.336154258153139,-0.5537157033281326,1.0
0.3381551763564315,-0.5537157033281326,1.0
0.34015609455972395,-0.5537157033281326,1.0
0.34215701276301647,-0.5537157033281326,1.0
0.344157930966309,-0.5537157033281326,1.0
0.34615884916960143,-0.5429433290048378,1.0
0.34815976737289395,-0.5129295559554503,1.0
0.35016068557618646,-0.5029156017279295,1.0
0.3521616037794789,-0.5029156017279295,1.0
0.3541625219827714,-0.49804439117452315,1.0
0.35616344018606394,-0.4902284507430843,1.0
0.3581643583893564,-0.475221564218391,1.0
0.3601652765926489,-0.47199359720582645,1.0
0.3621661947959414,-0.47699589271405785,1.0
0.3641671129992339,-0.4595850017499843,1.0
0.3661680312025264,-0.44263056732503436,1.0
0.3681689494058189,-0.43762827181680297,1.0
0.37016986760911136,-0.4377382895467452,1.0
0.37217078581240387,-0.44274058505497704,1.0
0.3741717040156964,-0.4518369445987238,1.0
0.37617262221898884,-0.4642028204041089,0.9330660769700896
0.37817354042228135,-0.49296601957643826,0.40132706762101134
0.38017445862557386,-0.5156103115550357,0.10000000149011612
0.3821753768288663,-0.5302524473655876,0.10000000149011612
0.38417629503215883,-0.561183303048145,0.49388996489657855
0.38617721323545134,-0.5972546347521392,1.0
0.3881781314387438,-0.6222661122932953,1.0
0.3901790496420363,-0.6383825393284712,1.0
0.3921799678453288,-0.6383825393284712,1.0
0.3941808860486213,-0.6383825393284712,1.0
0.3961818042519138,-0.6383825393284712,1.0
0.3981827224552063,-0.6432373642625246,1.0
0.40018364065849876,-0.648239659770756,1.0
0.4021845588617913,-0.6532419552789874,1.0
0.4041854770650838,-0.6582442507872184,1.0
0.40618639526837624,-0.6632465462954493,1.0
0.40818731347166876,-0.6593163384534653,1.0
0.41018823167496127,-0.6553159065285392,1.0
0.4121891498782537,-0.6553159065285392,1.0
0.41419006808154624,-0.6553159065285392,1.0
0.41619098628483875,-0.6553159065285392,1.0
0.4181919044881312,-0.606383765534591,1.0
0.4201928226914237,-0.5537157033281326,1.0
0.42219374089471623,-0.5537157033281326,1.0
0.4241946590980087,-0.5537157033281326,1.0
0.4261955773013012,-0.5537157033281326,1.0
0.4281964955045937,-0.5537157033281326,1.0
0.43019741370788617,-0.5537157033281326,1.0
0.4321983319111787,-0.5537157033281326,1.0
0.4341992501144712,-0.5537157033281326,1.0
0.43620016831776365,-0.5537157033281326,1.0
0.43820108652105616,-0.5537157033281326,1.0
0.44020200472434867,-0.5537157033281326,1.0
0.44220292292764113,-0.5537157033281326,1.0
0.44420384113093364,-0.5537157033281326,1.0
0.44620475933422615,-0.5537157033281326,1.0
0.4482056775375186,-0.5537157033281326,1.0
0.4502065957408111,-0.5537157033281326,1.0
0.45220751394410363,-0.5492658372723778,1.0
0.45420843214739615,-0.5432780638001944,1.0
0.4562093503506886,-0.5332734727837325,1.0
0.4582102685539811,-0.48510267788901285,0.7317666578950277
0.4602111867572736,-0.3994383673105517,0.20002764854594068
0.4622121049605661,-0.2822990375568213,0.5317113637833638
0.4642130231638586,-0.17331184603161542,1.0
0.4662139413671511,-0.17831414153984682,1.0
0.46821485957044356,-0.18118162492664247,1.0
0.4702157777737361,-0.18118162492664247,1.0
0.4722166959770286,-0.18118162492664247,1.0
0.47421761418032105,-0.18118162492664247,1.0
0.47621853238361356,-0.18118162492664247,1.0
0.47821945058690607,-0.17943538606415244,1.0
0.4802203687901985,-0.1744330905559215,1.0
0.48222128699349104,-0.1727149413266087,1.0
0.48422220519678355,-0.1727149413266087,1.0
0.486223123400076,-0.1775369950219554,1.0
0.4882240416033685,-0.1825392905301868,1.0
0.49022495980666103,-0.18754158603841864,1.0
0.4922258780099535,-0.1925438815466496,1.0
0.494226796213246,-0.19754617705488098,1.0
0.4962277144165385,-0.19811499212671047,1.0
0.49822863261983097,-0.19811499212671047,1.0
0.5002295508231235,-0.19811499212671047,1.0
0.502230469026416,-0.2658039856744523,1.0
0.5042313872297085,-0.40086596439669764,1.0
0.5062323054330009,-0.39659533695264004,0.5700304126555047
0.5082332236362934,-0.36570978207358706,0.10000000149011612
0.5102341418395859,-0.38329597721971265,0.10000000149011612
0.5122350600428784,-0.40181312151226134,0.10000000149011612
0.514235978246171,-0.42159759105165273,0.10000000149011612
0.5162368964494635,-0.4431896963783939,0.10000000149011612
0.518237814652756,-0.4648547503634619,0.10000000149011612
0.5202387328560484,-0.47167182170141064,0.10000000149011612
0.5222396510593409,-0.47993037110574477,0.10000000149011612
0.5242405692626334,-0.4909158303027792,0.10000000149011612
0.5262414874659259,-0.5174927778912037,0.44735969126613767
0.5282424056692184,-0.5523457232575786,0.9790987006152073
0.5302433238725109,-0.5537157033281326,1.0
0.5322442420758033,-0.5537157033281326,1.0
0.5342451602790959,-0.5537157033281326,1.0
0.5362460784823884,-0.5537157033281326,1.0
0.5382469966856809,-0.5537157033281326,1.0
0.5402479148889734,-0.5537157033281326,1.0
0.5422488330922659,-0.5537157033281326,1.0
0.5442497512955583,-0.5537157033281326,1.0
0.5462506694988508,-0.5537157033281326,1.0
0.5482515877021433,-0.5537157033281326,1.0
0.5502525059054358,-0.5537157033281326,1.0
0.5522534241087284,-0.5537157033281326,1.0
0.5542543423120209,-0.5537157033281326,1.0
0.5562552605153133,-0.5537157033281326,1.0
0.5582561787186058,-0.5537157033281326,1.0
0.5602570969218983,-0.5537157033281326,1.0
0.5622580151251908,-0.5537157033281326,1.0
0.5642589333284833,-0.5537157033281326,1.0
0.5662598515317758,-0.5537157033281326,1.0
0.5682607697350682,-0.5537157033281326,1.0
0.5702616879383607,-0.5537157033281326,1.0
0.5722626061416533,-0.5537157033281326,1.0
0.5742635243449458,-0.5537157033281326,1.0
0.5762644425482383,-0.5537157033281326,1.0
0.5782653607515308,-0.5537157033281326,1.0
0.5802662789548232,-0.5537157033281326,1.0
0.5822671971581157,-0.5537157033281326,1.0
0.5842681153614082,-0.5537157033281326,1.0
0.5862690335647007,-0.5537157033281326,1.0
0.5882699517679932,-0.5537157033281326,1.0
0.5902708699712857,-0.5537157033281326,1.0
0.5922717881745782,-0.5537157033281326,1.0
0.5942727063778707,-0.5537157033281326,1.0
0.5962736245811632,-0.5537157033281326,1.0
0.5982745427844557,-0.5537157033281326,1.0
0.6002754609877482,-0.5537157033281326,1.0
0.6022763791910407,-0.5537157033281326,1.0
0.6042772973943331,-0.5537157033281326,1.0
0.6062782155976256,-0.5537157033281326,1.0
0.6082791338009181,-0.5537157033281326,1.0
0.6102800520042106,-0.5520186213237022,1.0
0.6122809702075032,-0.5470163258154708,1.0
0.6142818884107957,-0.5452490197280988,1.0
0.6162828066140881,-0.5452490197280988,1.0
0.6182837248173806,-0.5500219165653863,1.0
0.6202846430206731,-0.5537157033281326,1.0
0.6222855612239656,-0.5537157033281326,1.0
0.6242864794272581,-0.5537157033281326,1.0
0.6262873976305506,-0.5537157033281326,1.0
0.628288315833843,-0.5756373212198431,1.0
0.6302892340371355,-0.5782253712766008,0.902211777878254
0.6322901522404281,-0.48130589580461924,0.370472768529167
0.6342910704437206,-0.381314116703928,0.36126624380015226
0.6362919886470131,-0.27814177184665745,0.8930052531492393
0.6382929068503056,-0.25738177732694734,1.0
0.6402938250535981,-0.25738177732694734,1.0
0.6422947432568905,-0.25738177732694734,1.0
0.644295661460183,-0.25738177732694734,1.0
0.6462965796634755,-0.25738177732694734,1.0
0.648297497866768,-0.25738177732694734,1.0
0.6502984160700606,-0.25738177732694734,1.0
0.6522993342733531,-0.25738177732694734,1.0
0.6543002524766455,-0.25738177732694734,1.0
0.656301170679938,-0.25738177732694734,1.0
0.6583020888832305,-0.25738177732694734,1.0
0.660303007086523,-0.25738177732694734,1.0
0.6623039252898155,-0.25738177732694734,1.0
0.664304843493108,-0.25738177732694734,1.0
0.6663057616964004,-0.25738177732694734,1.0
0.668306679899693,-0.25738177732694734,1.0
0.6703075981029855,-0.25738177732694734,1.0
0.672308516306278,-0.25738177732694734,1.0
0.6743094345095705,-0.25738177732694734,1.0
0.676310352712863,-0.25738177732694734,1.0
0.6783112709161554,-0.25738177732694734,1.0
0.6803121891194479,-0.25738177732694734,1.0
0.6823131073227404,-0.25738177732694734,1.0
0.6843140255260329,-0.25738177732694734,1.0
0.6863149437293254,-0.25738177732694734,1.0
0.688315861932618,-0.25738177732694734,1.0
0.6903167801359104,-0.25738177732694734,1.0
0.6923176983392029,-0.25738177732694734,1.0
0.6943186165424954,-0.2575081806762429,1.0
0.6963195347457879,-0.2625104761844743,1.0
0.6983204529490804,-0.26418415016125696,1.0
0.7003213711523729,-0.25918185465302557,1.0
0.7023222893556653,-0.25738177732694734,1.0
0.7043232075589578,-0.25738177732694734,1.0
0.7063241257622503,-0.25738177732694734,1.0
0.7083250439655429,-0.25738177732694734,1.0
0.7103259621688354,-0.25738177732694734,1.0
0.7123268803721279,-0.25738177732694734,1.0
0.7143277985754203,-0.25738177732694734,1.0
0.7163287167787128,-0.25738177732694734,1.0
0.7183296349820053,-0.25738177732694734,1.0
0.7203305531852978,-0.25738177732694734,1.0
0.7223314713885903,-0.25738177732694734,1.0
0.7243323895918828,-0.25738177732694734,1.0
0.7263333077951752,-0.25738177732694734,1.0
0.7283342259984678,-0.25738177732694734,1.0
0.7303351442017603,-0.25738177732694734,1.0
0.7323360624050528,-0.25738177732694734,1.0
0.7343369806083453,-0.25738177732694734,1.0
0.7363378988116378,-0.25738177732694734,1.0
0.7383388170149302,-0.25738177732694734,1.0
0.7403397352182227,-0.25738177732694734,1.0
0.7423406534215152,-0.25738177732694734,1.0
0.7443415716248077,-0.25738177732694734,1.0
0.7463424898281003,-0.25738177732694734,1.0
0.7483434080313928,-0.25738177732694734,1.0
0.7503443262346852,-0.25738177732694734,1.0
0.7523452444379777,-0.25738177732694734,1.0
0.7543461626412702,-0.25738177732694734,1.0
0.7563470808445627,-0.25738177732694734,1.0
0.7583479990478552,-0.25738177732694734,1.0
0.7603489172511477,-0.25738177732694734,0.5391761135636262
0.7623498354544401,-0.25738177732694734,0.10000000149011612
0.7643507536577326,-0.25738177732694734,0.10000000149011612
0.7663516718610252,-0.25738177732694734,0.3560409189539539
0.7683525900643177,-0.25738177732694734,0.887779928303041
0.7703535082676102,-0.25738177732694734,1.0
0.7723544264709027,-0.25738177732694734,1.0
0.7743553446741952,-0.25738177732694734,1.0
0.7763562628774876,-0.25738177732694734,1.0
0.7783571810807801,-0.25738177732694734,1.0
0.7803580992840726,-0.25738177732694734,1.0
0.7823590174873651,-0.25738177732694734,1.0
0.7843599356906577,-0.25738177732694734,1.0
0.7863608538939502,-0.25738177732694734,1.0
0.7883617720972426,-0.25738177732694734,1.0
0.7903626903005351,-0.25738177732694734,1.0
0.7923636085038276,-0.25738177732694734,1.0
0.7943645267071201,-0.25738177732694734,1.0
0.7963654449104126,-0.25738177732694734,1.0
0.7983663631137051,-0.25738177732694734,1.0
0.8003672813169975,-0.25738177732694734,1.0
0.80236819952029,-0.25738177732694734,1.0
0.8043691177235825,-0.25738177732694734,1.0
0.8063700359268751,-0.25738177732694734,1.0
0.8083709541301676,-0.25738177732694734,1.0
0.8103718723334601,-0.25738177732694734,1.0
0.8123727905367525,-0.25738177732694734,1.0
0.814373708740045,-0.25738177732694734,1.0
0.8163746269433375,-0.25738177732694734,1.0
0.81837554514663,-0.25738177732694734,1.0
0.8203764633499225,-0.2593855044935576,1.0
0.822377381553215,-0.26438780000178896,1.0
0.8243782997565074,-0.2658484609269811,1.0
0.8263792179598,-0.2657712144357447,1.0
0.8283801361630925,-0.26076891892751375,1.0
0.830381054366385,-0.25738177732694734,1.0
0.8323819725696775,-0.25738177732694734,1.0
0.83438289077297,-0.25738177732694734,1.0
0.8363838089762624,-0.25738177732694734,1.0
0.8383847271795549,-0.25738177732694734,1.0
0.8403856453828474,-0.25738177732694734,1.0
0.84238656358614,-0.25738177732694734,1.0
0.8443874817894325,-0.2712042176526879,1.0
0.846388399992725,-0.2962156951938444,1.0
0.8483893181960174,-0.29971519532711666,1.0
0.8503902363993099,-0.29971519532711666,1.0
0.8523911546026024,-0.29971519532711666,1.0
0.8543920728058949,-0.29971519532711666,1.0
0.8563929910091874,-0.29971519532711666,1.0
0.8583939092124799,-0.28014608421395915,1.0
0.8603948274157723,-0.25738177732694734,1.0
0.8623957456190648,-0.25738177732694734,1.0
0.8643966638223574,-0.25738177732694734,1.0
0.8663975820256499,-0.25738177732694734,1.0
0.8683985002289424,-0.25738177732694734,1.0
0.8703994184322349,-0.25738177732694734,1.0
0.8724003366355273,-0.25738177732694734,1.0
0.8744012548388198,-0.25738177732694734,1.0
0.8764021730421123,-0.25738177732694734,1.0
0.8784030912454048,-0.25738177732694734,1.0
0.8804040094486973,-0.25738177732694734,1.0
0.8824049276519899,-0.25738177732694734,1.0
0.8844058458552823,-0.2585919723563137,1.0
0.8864067640585748,-0.26359426786454465,1.0
0.8884076822618673,-0.2905813829391346,1.0
0.8904086004651598,-0.33560204251321624,1.0
0.8924095186684523,-0.31677089607167197,0.5444014384098244
0.8944104368717448,-0.29178880824022935,0.10000000149011612
0.8964113550750372,-0.28980636442375696,0.10000000149011612
0.8984122732783297,-0.2877070334192289,0.10000000149011612
0.9004131914816222,-0.2854767841256973,0.10000000149011612
0.9024141096849148,-0.2825421485959154,0.10000000149011612
0.9044150278882073,-0.27888673441115674,0.10000000149011612
0.9064159460914998,-0.26973304489642613,0.10000000149011612
0.9084168642947923,-0.2615815444598306,0.10000000149011612
0.9104177824980847,-0.2549714155864007,0.10000000149011612
0.9124187007013772,-0.24795552513714147,0.10000000149011612
0.9144196189046697,-0.24076142507567067,0.10000000149011612
0.9164205371079622,-0.2329530430436182,0.10000000149011612
0.9184214553112547,-0.2255172721487808,0.10000000149011612
0.9204223735145473,-0.21888680431825014,0.10000000149011612
0.9224232917178397,-0.21355226885277068,0.10000000149011612
0.9244242099211322,-0.20899937601407315,0.10000000149011612
0.9264251281244247,-0.18889553963383632,0.5951617369158146
0.9284260463277172,-0.17390875073662215,1.0
0.9304269645310097,-0.1789110462448531,1.0
0.9324278827343022,-0.1839133417530845,1.0
0.9344288009375946,-0.18891563726131588,1.0
0.9364297191408871,-0.1896483085266767,1.0
0.9384306373441796,-0.1896483085266767,1.0
0.9404315555474722,-0.1896483085266767,1.0
0.9424324737507647,-0.18730516495918037,1.0
0.9444333919540572,-0.18230286945094853,1.0
0.9464343101573496,-0.18118162492664247,1.0
0.9484352283606421,-0.18201495071088702,1.0
0.9504361465639346,-0.1920195417273498,1.0
0.9524370647672271,-0.1961604218181594,1.0
0.9544379829705196,-0.191158126309928,1.0
0.9564389011738121,-0.1896483085266767,1.0
0.9584398193771045,-0.1896483085266767,1.0
0.960440737580397,-0.1896483085266767,1.0
0.9624416557836896,-0.1896483085266767,1.0
0.9644425739869821,-0.1896483085266767,1.0
0.9664434921902746,-0.18654440406064232,1.0
0.9684444103935671,-0.18154210855241093,1.0
0.9704453285968595,-0.18118162492664247,1.0
0.972446246800152,-0.18235904871730257,1.0
0.9744471650034445,-0.18736134422553397,1.0
0.976448083206737,-0.1896483085266767,1.0
0.9784490014100296,-0.1896483085266767,1.0
0.9804499196133221,-0.1896483085266767,1.0
0.9824508378166145,-0.1896483085266767,1.0
0.984451756019907,-0.1896483085266767,1.0
0.9864526742231995,-0.18732155057853328,1.0
0.988453592426492,-0.18231925507030144,1.0
0.9904545106297845,-0.18118162492664247,1.0
0.992455428833077,-0.18118162492664247,1.0
0.9944563470363694,-0.18118162492664247,1.0
0.9964572652396619,-0.17924344023744476,1.0
0.9984581834429545,-0.17424114472921337,1.0
1.000459101646247,-0.1727149413266087,1.0
1.0024600198495395,-0.17272664534043258,1.0
1.004460938052832,-0.17772894084866397,1.0
1.0064618562561245,-0.18118162492664247,1.0
1.008462774459417,-0.18118162492664247,1.0
1.0104636926627095,-0.18426914377332393,1.0
1.0124646108660018,-0.18927143928155488,1.0
1.0144655290692943,-0.2127754398422237,1.0
1.0164664472725868,-0.23082068835553926,1.0
1.0184673654758793,-0.22581839284730743,1.0
1.0204682836791719,-0.22182820193447705,0.713104783444293
1.0224692018824644,-0.21870176724183255,0.18136577409522325
1.0244701200857569,-0.22089346574712376,0.10000000149011612
1.0264710382890494,-0.22432758189483915,0.1821122490733233
1.028471956492342,-0.22930382378063152,0.7138512584223929
1.0304728746956344,-0.231981726526846,1.0
1.032473792898927,-0.231981726526846,1.0
1.0344747111022194,-0.231981726526846,1.0
1.036475629305512,-0.231981726526846,1.0
1.0384765475088042,-0.231981726526846,1.0
1.0404774657120968,-0.231981726526846,1.0
1.0424783839153893,-0.231981726526846,1.0
1.0444793021186818,-0.231981726526846,1.0
1.0464802203219743,-0.231981726526846,1.0
1.0484811385252668,-0.231981726526846,1.0
1.0504820567285593,-0.231981726526846,1.0
1.0524829749318518,-0.231981726526846,1.0
1.0544838931351443,-0.231981726526846,1.0
1.0564848113384369,-0.231981726526846,1.0
1.0584857295417294,-0.231981726526846,1.0
1.0604866477450219,-0.231981726526846,1.0
1.0624875659483142,-0.231981726526846,1.0
1.0644884841516067,-0.231981726526846,1.0
1.0664894023548992,-0.231981726526846,1.0
1.0684903205581917,-0.231981726526846,1.0
1.0704912387614842,-0.231981726526846,1.0
1.0724921569647767,-0.231981726526846,1.0
1.0744930751680692,-0.231981726526846,1.0
1.0764939933713618,-0.231981726526846,1.0
1.0784949115746543,-0.231981726526846,1.0
1.0804958297779468,-0.231981726526846,1.0
1.0824967479812393,-0.231981726526846,1.0
1.0844976661845318,-0.231981726526846,1.0
1.086498584387824,-0.231981726526846,1.0
1.0884995025911166,-0.231981726526846,1.0
1.0905004207944091,-0.231981726526846,1.0
1.0925013389977016,-0.231981726526846,1.0
1.0945022572009941,-0.231981726526846,1.0
1.0965031754042867,-0.231981726526846,1.0
1.0985040936075792,-0.231981726526846,1.0
1.1005050118108717,-0.231981726526846,1.0
1.1025059300141642,-0.231981726526846,1.0
1.1045068482174567,-0.231981726526846,1.0
1.1065077664207492,-0.231981726526846,1.0
1.1085086846240417,-0.231981726526846,1.0
1.110509602827334,-0.231981726526846,1.0
1.1125105210306265,-0.231981726526846,1.0
1.114511439233919,-0.231981726526846,1.0
1.1165123574372116,-0.231981726526846,1.0
1.118513275640504,-0.231981726526846,1.0
1.1205141938437966,-0.231981726526846,1.0
1.122515112047089,-0.231981726526846,1.0
1.1245160302503816,-0.231981726526846,1.0
1.1265169484536741,-0.231981726526846,1.0
1.1285178666569666,-0.231981726526846,1.0
1.1305187848602591,-0.231981726526846,1.0
1.1325197030635517,-0.231981726526846,1.0
1.134520621266844,-0.231981726526846,1.0
1.1365215394701365,-0.231981726526846,1.0
1.138522457673429,-0.23048127195465273,1.0
1.1405233758767215,-0.22547897644642179,1.0
1.142524294080014,-0.21439995696094716,1.0
1.1445252122833065,-0.19939307043625298,1.0
1.146526130486599,-0.2204243054763313,0.5135471393179616
1.1485270486898915,-0.2410683205340587,0.10000000149011612
1.150527966893184,-0.24861866031679547,0.10000000149011612
1.1525288850964766,-0.25574151465212713,0.10000000149011612
1.154529803299769,-0.2624848434798248,0.10000000149011612
1.1565307215030616,-0.26899159201254985,0.10000000149011612
1.158531639706354,-0.2781173292024799,0.17688692422710062
1.1605325579096464,-0.3030088786628462,0.7086259335761461
1.162533476112939,-0.31664856252718465,1.0
1.1645343943162314,-0.31664856252718465,1.0
1.166535312519524,-0.31664856252718465,1.0
1.1685362307228164,-0.31664856252718465,1.0
1.170537148926109,-0.31664856252718465,1.0
1.1725380671294015,-0.3185212047389703,1.0
1.174538985332694,-0.32352350024720167,1.0
1.1765399035359865,-0.3285257957554326,1.0
1.178540821739279,-0.333528091263664,1.0
1.1805417399425715,-0.3335819297272522,1.0
1.182542658145864,-0.3410022744914549,1.0
1.1845435763491563,-0.3660137520326079,1.0
1.1865444945524488,-0.3759153477274215,1.0
1.1885454127557413,-0.3759153477274215,1.0
1.1905463309590338,-0.3713554639417245,1.0
1.1925472491623264,-0.3685441598212824,1.0
1.1945481673656189,-0.37354645532951336,1.0
1.1965490855689114,-0.3759153477274215,1.0
1.1985500037722039,-0.3759153477274215,1.0
1.2005509219754964,-0.3759153477274215,1.0
1.202551840178789,-0.3752084252924721,1.0
1.2045527583820814,-0.3702061297842407,1.0
1.206553676585374,-0.3831624730870353,1.0
1.2085545947886662,-0.4181785416446493,1.0
1.2105555129919587,-0.4304981865954307,1.0
1.2125564311952512,-0.43550048210366166,1.0
1.2145573493985438,-0.4405027776118935,1.0
1.2165582676018363,-0.44179255993526034,1.0
1.2185591858051288,-0.43679026442702895,1.0
1.2205601040084213,-0.4351821329276584,1.0
1.2225610222117138,-0.4351821329276584,1.0
1.2245619404150063,-0.4351821329276584,1.0
1.2265628586182988,-0.4351821329276584,1.0
1.2285637768215913,-0.4351821329276584,1.0
1.2305646950248839,-0.4351821329276584,1.0
1.2325656132281761,-0.4351821329276584,1.0
1.2345665314314687,-0.43972563109400253,1.0
1.2365674496347612,-0.4253039452604934,1.0
1.2385683678380537,-0.34026492162055844,1.0
1.2405692860413462,-0.29971519532711666,1.0
1.2425702042446387,-0.29971519532711666,1.0
1.2445711224479312,-0.3038701202345151,1.0
1.2465720406512237,-0.30887241574274693,1.0
1.2485729588545162,-0.3138747112509779,1.0
1.2505738770578088,-0.3077347855990853,1.0
1.2525747952611013,-0.2877256035661593,1.0
1.2545757134643938,-0.2827818281270491,1.0
1.256576631667686,-0.2827818281270491,1.0
1.2585775498709786,-0.2827818281270491,1.0
1.260578468074271,-0.2827818281270491,1.0
1.2625793862775636,-0.2827818281270491,1.0
1.2645803044808561,-0.2827818281270491,1.0
1.2665812226841486,-0.2827818281270491,1.0
1.2685821408874411,-0.2827818281270491,1.0
1.2705830590907337,-0.2842331258411832,1.0
1.2725839772940262,-0.28923542134941416,1.0
1.2745848954973187,-0.29087486108576277,0.682250484352424
1.2765858137006112,-0.2902495741472335,0.1505114750033194
1.2785867319039037,-0.2923829964170275,0.10000000149011612
1.2805876501071962,-0.2939093095447616,0.21296654816517885
1.2825885683104885,-0.2921116095964913,0.7447055575142243
1.284589486513781,-0.2964497754703168,1.0
1.2865904047170735,-0.30645436648677915,1.0
1.288591322920366,-0.31232041821519596,1.0
1.2905922411236586,-0.31732271372342735,1.0
1.292593159326951,-0.32232500923165874,1.0
1.2945940775302436,-0.3251152461272184,1.0
1.296594995733536,-0.3251152461272184,1.0
1.2985959139368286,-0.3251152461272184,1.0
1.3005968321401211,-0.3251152461272184,1.0
1.3025977503434136,-0.3251152461272184,1.0
1.3045986685467061,-0.3305857021883978,1.0
1.3065995867499984,-0.3455925887130902,1.0
1.308600504953291,-0.35051529692731975,1.0
1.3106014231565835,-0.35051529692731975,1.0
1.312602341359876,-0.3701124976736523,1.0
1.3146032595631685,-0.3786423829483332,1.0
1.316604177766461,-0.3586332009154076,1.0
1.3186050959697535,-0.35051529692731975,1.0
1.320606014173046,-0.35051529692731975,1.0
1.3226069323763385,-0.35051529692731975,1.0
1.324607850579631,-0.35051529692731975,1.0
1.3266087687829236,-0.35051529692731975,1.0
1.328609686986216,-0.35051529692731975,1.0
1.3306106051895084,-0.35051529692731975,1.0
1.3326115233928009,-0.35051529692731975,1.0
1.3346124415960934,-0.35051529692731975,1.0
1.336613359799386,-0.35051529692731975,1.0
1.3386142780026784,-0.35051529692731975,1.0
1.340615196205971,-0.35051529692731975,1.0
1.3426161144092634,-0.3542488773370671,1.0
1.344617032612556,-0.35898198052735397,1.0
1.3466179508158485,-0.35898198052735397,1.0
1.348618869019141,-0.35717488079298043,1.0
1.3506197872224335,-0.3521725852847495,1.0
1.352620705425726,-0.35386030407812186,1.0
1.3546216236290183,-0.3588625995863528,1.0
1.3566225418323108,-0.22226037264491172,1.0
1.3586234600356033,-0.1204963132509782,1.0
1.3606243782388958,-0.11549401774274681,1.0
1.3626252964421883,-0.11344815612637182,1.0
1.3646262146454808,-0.11344815612637182,1.0
1.3666271328487734,-0.10895381481808686,1.0
1.3686280510520659,-0.10601142574281974,1.0
1.3706289692553584,-0.11101372125105158,1.0
1.3726298874586509,-0.11344815612637182,1.0
1.3746308056619434,-0.11344815612637182,1.0
1.376631723865236,-0.11344815612637182,1.0
1.3786326420685282,-0.11216539621129851,1.0
1.3806335602718207,-0.10216080519483617,1.0
1.3826344784751132,-0.09651478892630383,1.0
1.3846353966784057,-0.09651478892630383,1.0
1.3866363148816983,-0.12253515245906188,1.0
1.3886372330849908,-0.1562871875237235,1.0
1.3906381512882833,-0.16629177854018584,1.0
1.3926390694915758,-0.1727149413266087,1.0
1.3946399876948683,-0.1727149413266087,1.0
1.3966409058981608,-0.08284215997749511,1.0
1.3986418241014533,0.05221981874474535,1.0
1.4006427423047458,0.051018986926428145,1.0
1.4026436605080381,0.054692437965157215,0.8509538293869278
1.4046445787113306,0.08064184591410628,0.31921482003785817
1.4066454969146232,0.15546955639341764,0.41252419229146414
1.4086464151179157,0.2645821271667166,0.9442632016405687
1.4106473333212082,0.27154133378625467,1.0
1.4126482515245007,0.2675526058751525,1.0
1.4146491697277932,0.2675526058751525,1.0
1.4166500879310857,0.2675526058751525,1.0
1.4186510061343782,0.2675526058751525,1.0
1.4206519243376707,0.27164198830513886,1.0
1.4226528425409632,0.27539429513700275,1.0
1.4246537607442558,0.27039199962877136,1.0
1.4266546789475483,0.2978332304397284,1.0
1.4286555971508406,0.36786536755495636,1.0
1.430656515354133,0.3823853671045856,1.0
1.4326574335574256,0.3773830715963542,1.0
1.434658351760718,0.37238077608812326,1.0
1.4366592699640106,0.37802445155389197,1.0
1.4386601881673031,0.4030359290950476,1.0
1.4406611063705956,0.411486227075728,1.0
1.4426620245738881,0.411486227075728,1.0
1.4446629427771807,0.411486227075728,1.0
1.4466638609804732,0.411486227075728,1.0
1.4486647791837657,0.411486227075728,1.0
1.4506656973870582,0.411486227075728,1.0
1.4526666155903505,0.411486227075728,1.0
1.454667533793643,0.411486227075728,1.0
1.4566684519969355,0.411486227075728,1.0
1.458669370200228,0.411486227075728,1.0
1.4606702884035205,0.411486227075728,1.0
1.462671206606813,0.411486227075728,1.0
1.4646721248101056,0.411486227075728,1.0
1.466673043013398,0.411486227075728,1.0
1.4686739612166906,0.411486227075728,1.0
1.470674879419983,0.411486227075728,1.0
1.4726757976232756,0.411486227075728,1.0
1.4746767158265681,0.411486227075728,1.0
1.4766776340298604,0.411486227075728,1.0
1.478678552233153,0.411486227075728,1.0
1.4806794704364454,0.411486227075728,1.0
1.482680388639738,0.411486227075728,1.0
1.4846813068430305,0.411486227075728,1.0
1.486682225046323,0.411486227075728,1.0
1.4886831432496155,0.411486227075728,1.0
1.490684061452908,0.411486227075728,1.0
1.4926849796562005,0.411486227075728,1.0
1.494685897859493,0.411486227075728,1.0
1.4966868160627855,0.411486227075728,1.0
1.498687734266078,0.411486227075728,1.0
1.5006886524693703,0.411486227075728,1.0
1.5026895706726628,0.411486227075728,1.0
1.5046904888759554,0.411486227075728,1.0
1.5066914070792479,0.411486227075728,1.0
1.5086923252825404,0.411486227075728,1.0
1.510693243485833,0.411486227075728,1.0
1.5126941616891254,0.411486227075728,1.0
1.514695079892418,0.411486227075728,1.0
1.5166959980957104,0.411486227075728,1.0
1.518696916299003,0.411486227075728,1.0
1.5206978345022955,0.411486227075728,1.0
1.522698752705588,0.411486227075728,1.0
1.5246996709088803,0.41322778433268814,1.0
1.5267005891121728,0.41823007984091953,1.0
1.5287015073154653,0.35764308188137006,1.0
1.5307024255187578,0.2625994672249785,1.0
1.5327033437220503,0.5384935034845486,1.0
1.5347042619253428,0.7542125230711285,1.0
1.5367051801286353,0.7692194095958218,1.0
1.5387060983319278,0.7726627304627405,1.0
1.5407070165352204,0.7676604349545091,1.0
1.5427079347385129,0.7670869382771506,1.0
1.5447088529418054,0.7670869382771506,1.0
1.546709771145098,0.7670869382771506,1.0
1.5487106893483904,0.7695892564326492,1.0
1.5507116075516827,0.7745915519408797,1.0
1.5527125257549752,0.7755536218771844,1.0
1.5547134439582677,0.7755536218771844,1.0
1.5567143621615602,0.7755536218771844,1.0
1.5587152803648527,0.7755536218771844,1.0
1.5607161985681453,0.7755536218771844,1.0
1.5627171167714378,0.7719019695642029,1.0
1.5647180349747303,0.7670869382771506,1.0
1.5667189531780228,0.7670869382771506,1.0
1.5687198713813153,0.7688121099147582,1.0
1.5707207895846078,0.7738144054229892,1.0
1.5727217077879003,0.7755536218771844,1.0
1.5747226259911926,0.7755536218771844,1.0
1.5767235441944851,0.8763743377569373,1.0
1.5787244623977776,0.9520173790992343,1.0
1.5807253806010702,0.947015083591003,1.0
1.5827262988043627,0.9448872938778621,1.0
1.5847272170076552,0.9448872938778621,1.0
1.5867281352109477,0.9448872938778621,1.0
1.5887290534142402,0.9458353189975792,1.0
1.5907299716175327,0.9508376145058097,1.0
1.5927308898208252,0.9533539774778959,1.0
1.5947318080241177,0.9533539774778959,1.0
1.5967327262274102,0.9533539774778959,1.0
1.5987336444307025,0.9533539774778959,1.0
1.600734562633995,0.9533539774778959,1.0
1.6027354808372876,0.955451336755095,1.0
1.60473639904058,0.9604536322633264,1.0
1.6067373172438726,0.9509148609970444,1.0
1.608738235447165,0.9330457578917715,0.9818357755346109
1.6107391536504576,0.8342504216041999,0.4500967661855064
1.6127400718537501,0.7567259112730289,0.10000000149011612
1.6147409900570426,0.7201987326139663,0.10000000149011612
1.6167419082603351,0.6166408624180106,0.4451202663320738
1.6187428264636277,0.47683712441192627,0.9768592756811435
1.6207437446669202,0.47075301227596533,1.0
1.6227446628702125,0.47075301227596533,1.0
1.624745581073505,0.47075301227596533,1.0
1.6267464992767975,0.4678948921002277,1.0
1.62874741748009,0.46289259659199633,1.0
1.6307483356833825,0.45789030108376494,1.0
1.632749253886675,0.452888005575534,1.0
1.6347501720899675,0.4478857100673026,1.0
1.63675109029326,0.4478225083926559,1.0
1.6387520084965526,0.45282480390088686,1.0
1.640752926699845,0.45782709940911825,1.0
1.6427538449031376,0.46282939491734965,1.0
1.64475476310643,0.46783169042558104,1.0
1.6467556813097224,0.47075301227596533,1.0
1.648756599513015,0.47075301227596533,1.0
1.6507575177163074,0.4671341312016901,1.0
1.6527584359196,0.4621318356934587,1.0
1.6547593541228924,0.45712954018522733,1.0
1.656760272326185,0.476138175336406,0.8200995302950678
1.6587611905294775,0.5421059473512084,0.2883605209459633
1.66076210873277,0.6100926617505893,0.4433784913833509
1.6627630269360625,0.6791868684580322,0.9751175007324205
1.664763945139355,0.6967247479720879,1.0
1.6667648633426475,0.7078201530769133,1.0
1.66876578154594,0.7078201530769133,1.0
1.6707666997492325,0.7078201530769133,1.0
1.6727676179525248,0.7078201530769133,1.0
1.6747685361558173,0.7078201530769133,1.0
1.6767694543591098,0.7078201530769133,1.0
1.6787703725624024,0.7078201530769133,1.0
1.6807712907656949,0.7078201530769133,1.0
1.6827722089689874,0.7078201530769133,1.0
1.68477312717228,0.7078201530769133,1.0
1.6867740453755724,0.7078201530769133,1.0
1.688774963578865,0.7078201530769133,1.0
1.6907758817821574,0.7078201530769133,1.0
1.69277679998545,0.7078201530769133,1.0
1.6947777181887425,0.7078201530769133,1.0
1.6967786363920347,0.7078201530769133,1.0
1.6987795545953273,0.7078201530769133,1.0
1.7007804727986198,0.7078201530769133,1.0
1.7027813910019123,0.7078201530769133,1.0
1.7047823092052048,0.7078201530769133,1.0
1.7067832274084973,0.7078201530769133,1.0
1.7087841456117898,0.7078201530769133,1.0
1.7107850638150823,0.7078201530769133,1.0
1.7127859820183748,0.7078201530769133,1.0
1.7147869002216674,0.7078201530769133,1.0
1.7167878184249599,0.7078201530769133,1.0
1.7187887366282524,0.7078201530769133,1.0
1.7207896548315447,0.7078201530769133,1.0
1.7227905730348372,0.7078201530769133,1.0
1.7247914912381297,0.7078201530769133,1.0
1.7267924094414222,0.7078201530769133,1.0
1.7287933276447147,0.7078201530769133,1.0
1.7307942458480072,0.7073098580742014,1.0
1.7327951640512997,0.70230756256597,1.0
1.7347960822545923,0.6993534694768795,1.0
1.7367970004578848,0.6993534694768795,1.0
1.7387979186611773,0.7029395793124489,1.0
1.7407988368644698,0.7089156487708124,1.0
1.7427997550677623,0.7539363083448958,1.0
1.7448006732710546,0.782360676317023,1.0
1.746801591474347,0.777358380808792,1.0
1.7488025096776396,0.7755536218771844,1.0
1.7508034278809321,0.7755536218771844,1.0
1.7528043460842246,0.7802890658702366,1.0
1.7548052642875172,0.7840203054772181,1.0
1.7568061824908097,0.7840203054772181,1.0
1.7588071006941022,0.7840203054772181,1.0
1.7608080188973947,0.7840203054772181,1.0
1.7628089371006872,0.7840203054772181,1.0
1.7648098553039797,0.7840203054772181,1.0
1.7668107735072722,0.7840203054772181,1.0
1.7688116917105645,0.7815999154184854,1.0
1.770812609913857,0.7765976199102544,1.0
1.7728135281171495,0.7755536218771844,1.0
1.774814446320442,0.7918526315280108,1.0
1.7768153645237346,0.9569283832996494,1.0
1.778816282727027,1.054954180678302,1.0
1.7808172009303196,1.054954180678302,1.0
1.782818119133612,1.054954180678302,1.0
1.7848190373369046,1.0544702928567773,0.9888028753295036
1.7868199555401971,1.0314909978658404,0.457063865980434
1.7888208737434896,1.0215870430807437,0.10000000149011612
1.7908217919467821,1.038411169770538,0.10000000149011612
1.7928227101500744,1.0434504369325905,0.10000000149011612
1.794823628353367,1.041743110487154,0.10000000149011612
1.7968245465566595,1.0398344521445484,0.10000000149011612
1.798825464759952,1.0378534900849044,0.10000000149011612
1.8008263829632445,1.035692655052399,0.10000000149011612
1.802827301166537,1.0349845822292068,0.10000000149011612
1.8048282193698295,1.0354260546915048,0.10000000149011612
1.806829137573122,1.0340947200456574,0.10000000149011612
1.8088300557764145,1.0324905459095524,0.10000000149011612
1.810830973979707,1.0308968074845763,0.10000000149011612
1.8128318921829996,1.029322713007275,0.10000000149011612
1.814832810386292,1.027769850060567,0.10000000149011612
1.8168337285895846,1.0262768739290475,0.10000000149011612
1.8188346467928769,1.0247771166919852,0.10000000149011612
1.8208355649961694,1.023060457893716,0.10000000149011612
1.822836483199462,1.0213382441203578,0.10000000149011612
1.8248374014027544,1.019607797886822,0.10000000149011612
1.826838319606047,1.0178652129978474,0.10000000149011612
1.8288392378093394,1.0161172455831062,0.10000000149011612
1.830840156012632,1.0143453769031394,0.10000000149011612
1.8328410742159245,1.012561515560586,0.10000000149011612
1.834841992419217,1.01075277160012,0.10000000149011612
1.8368429106225095,1.0089367452847586,0.10000000149011612
1.838843828825802,1.0071164906790182,0.10000000149011612
1.8408447470290945,1.0052856824338443,0.10000000149011612
1.8428456652323868,1.0034516042497783,0.10000000149011612
1.8448465834356793,1.0016096303546798,0.10000000149011612
1.8468475016389718,0.9997627930538053,0.10000000149011612
1.8488484198422643,0.9979120560068164,0.10000000149011612
1.8508493380455568,0.9960567919793366,0.10000000149011612
1.8528502562488494,0.9942000471066343,0.10000000149011612
1.8548511744521419,0.9923395944766966,0.10000000149011612
1.8568520926554344,0.9902908805690478,0.10000000149011612
1.858853010858727,0.9880360021053205,0.10000000149011612
1.8608539290620194,0.9864153203655892,0.10000000149011612
1.862854847265312,0.9847562243478842,0.14901852504741125
1.8648557654686044,0.9810057293182499,0.6807575343964809
1.8668566836718967,0.9767549827169164,1.0
1.8688576018751892,0.971752687208685,1.0
1.8708585200784817,0.9738242976554732,1.0
1.8728594382817743,0.9787540282779972,1.0
1.8748603564850668,0.9787540282779972,1.0
1.8768612746883593,0.9787540282779972,1.0
1.8788621928916518,0.9787540282779972,1.0
1.8808631110949443,0.9787540282779972,1.0
1.8828640292982368,0.9787540282779972,1.0
1.8848649475015293,0.9787540282779972,1.0
1.8868658657048218,0.9799759273211874,1.0
1.8888667839081144,0.9849782228294188,1.0
1.8908677021114066,0.9844609054184126,1.0
1.8928686203146992,0.9794586099101812,1.0
1.8948695385179917,0.9787540282779972,1.0
1.8968704567212842,0.9787540282779972,1.0
1.8988713749245767,0.9787540282779972,1.0
1.9008722931278692,0.9787540282779972,1.0
1.9028732113311617,0.9787540282779972,1.0
1.9048741295344542,0.9787540282779972,1.0
1.9068750477377467,0.9783092757526974,1.0
1.9088759659410393,0.973306980244466,1.0
1.9108768841443318,0.9754918270250004,0.7892452312031724
1.9128778023476243,0.9886228527341068,0.25750622185410277
1.9148787205509166,0.9960146201978848,0.10000000149011612
1.916879638754209,1.0010125145092514,0.10597180131438477
1.9188805569575016,1.0079167244555078,0.6377108106634545
1.920881475160794,1.01740302272648,1.0
1.9228823933640866,1.0324099092511743,1.0
1.9248833115673791,1.0380208134782345,1.0
1.9268842297706716,1.0380208134782345,1.0
1.9288851479739642,1.0380208134782345,1.0
1.9308860661772567,1.0380208134782345,1.0
1.9328869843805492,1.0380208134782345,1.0
1.9348879025838417,1.0380208134782345,1.0
1.9368888207871342,1.0380208134782345,1.0
1.9388897389904267,1.0380208134782345,1.0
1.940890657193719,1.0380208134782345,1.0
1.9428915753970115,1.0380208134782345,1.0
1.944892493600304,1.0380208134782345,1.0
1.9468934118035965,1.0380208134782345,1.0
1.948894330006889,1.0380208134782345,1.0
1.9508952482101816,1.0375924465722886,1.0
1.952896166413474,1.0325901510640572,1.0
1.9548970846167666,1.0315204042005757,1.0
1.956898002820059,1.036522699708807,1.0
1.9588989210233516,1.0345166317394305,1.0
1.9608998392266441,1.0295541298782007,1.0
1.9629007574299366,1.0295541298782007,1.0
1.964901675633229,1.0311318309416304,1.0
1.9669025938365214,1.036134126449861,1.0
1.968903512039814,1.0380208134782345,1.0
1.9709044302431065,1.0380208134782345,1.0
1.972905348446399,1.0380208134782345,1.0
1.9749062666496915,1.0380208134782345,1.0
1.976907184852984,1.0380208134782345,1.0
1.9789081030562765,1.0380208134782345,1.0
1.980909021259569,1.0380208134782345,1.0
1.9829099394628615,1.0380208134782345,1.0
1.984910857666154,1.0372202589326962,1.0
1.9869117758694466,1.0322179634244648,1.0
1.9889126940727389,0.9477079612093551,1.0
1.9909136122760314,0.7726276184212653,1.0
1.9929145304793239,0.733220203877015,1.0
1.9949154486826164,0.733220203877015,1.0
1.996916366885909,0.733220203877015,1.0
1.9989172850892014,0.733220203877015,1.0
2.000918203292494,0.733220203877015,1.0
2.002919121495786,0.733220203877015,1.0
2.004920039699079,0.733220203877015,1.0
2.0069209579023712,0.733220203877015,1.0
2.008921876105664,0.7347815193210914,1.0
2.0109227943089563,0.7397838148293223,1.0
2.012923712512249,0.7416868874770488,1.0
2.0149246307155413,0.7416868874770488,1.0
2.016925548918834,0.7416868874770488,1.0
2.0189264671221263,0.7416868874770488,1.0
2.020927385325419,0.7416868874770488,1.0
2.0229283035287113,0.7416868874770488,1.0
2.0249292217320036,0.7416868874770488,1.0
2.0269301399352964,0.7416868874770488,1.0
2.0289310581385887,0.7416868874770488,1.0
2.0309319763418814,0.7416868874770488,1.0
2.0329328945451737,0.7579414218753442,1.0
2.0349338127484664,0.7929574904329684,1.0
2.0369347309517587,0.8009536726772861,1.0
2.0389356491550514,0.8035250445143509,0.9579485762375992
2.0409365673583437,0.8360399653178474,0.42620956688862344
2.0429374855616365,0.86279465818459,0.10000000149011612
2.0449384037649287,0.8804069069531533,0.10000000149011612
2.0469393219682215,0.9273815028683812,0.46900746562905454
2.0489402401715138,0.987220711878031,1.0
2.050941158374806,0.987220711878031,1.0
2.052942076578099,0.987220711878031,1.0
2.054942994781391,0.987220711878031,1.0
2.056943912984684,0.987220711878031,1.0
2.058944831187976,0.987220711878031,1.0
2.060945749391269,0.987220711878031,1.0
2.062946667594561,0.987220711878031,1.0
2.064947585797854,0.987220711878031,1.0
2.066948504001146,0.9845264478958251,1.0
2.068949422204439,0.9795241523875928,1.0
2.070950340407731,0.9745218568793623,1.0
2.072951258611024,0.9702873446779634,1.0
2.074952176814316,0.9702873446779634,1.0
2.0769530950176085,0.8757540250242695,1.0
2.0789540132209012,0.6706599091867838,1.0
2.0809549314241935,0.5924045319590623,1.0
2.0829558496274863,0.5470772272227848,1.0
2.0849567678307785,0.4370267260417049,1.0
2.0869576860340713,0.3672356916112425,1.0
2.0889586042373636,0.3622333961030124,1.0
2.0909595224406563,0.3606861254755249,1.0
2.0929604406439486,0.3606861254755249,1.0
2.0949613588472413,0.36567905777269827,1.0
2.0969622770505336,0.3676242648701882,1.0
2.098963195253826,0.3626219693619577,1.0
2.1009641134571186,0.3606861254755249,1.0
2.102965031660411,0.3606861254755249,1.0
2.1049659498637037,0.3652904845137521,1.0
2.106966868066996,0.3691528090755587,1.0
2.1089677862702887,0.3691528090755587,1.0
2.110968704473581,0.3691528090755587,1.0
2.1129696226768737,0.3691528090755587,1.0
2.114970540880166,0.3691528090755587,1.0
2.1169714590834587,0.3691528090755587,1.0
2.118972377286751,0.3691528090755587,1.0
2.1209732954900438,0.3691528090755587,1.0
2.122974213693336,0.3691528090755587,1.0
2.1249751318966283,0.36532559655522245,1.0
2.126976050099921,0.3610489499040588,1.0
2.1289769683032134,0.3660512454122893,1.0
2.130977886506506,0.36725207723059583,1.0
2.1329788047097984,0.3622497817223653,1.0
2.134979722913091,0.3606861254755249,1.0
2.1369806411163834,0.3606861254755249,1.0
2.138981559319676,0.36566267215334447,1.0
2.1409824775229684,0.3691528090755587,1.0
2.142983395726261,0.3691528090755587,1.0
2.1449843139295535,0.3691528090755587,1.0
2.1469852321328458,0.3691528090755587,1.0
2.1489861503361385,0.3645648356566844,1.0
2.150987068539431,0.3595625401484539,1.0
2.1529879867427235,0.35456024464022207,1.0
2.154988904946016,0.35221944187549115,1.0
2.1569898231493085,0.35221944187549115,1.0
2.158990741352601,0.41521044427441733,1.0
2.1609916595558936,0.4792196958759991,1.0
2.162992577759186,0.4792196958759991,1.0
2.1649934959624786,0.4814926153605543,1.0
2.166994414165771,0.4864949108687848,1.0
2.1689953323690636,0.550565023342271,0.5949129119229833
2.170996250572356,0.6362208485107104,0.13682610040628954
2.172997168775648,0.7637793839705824,0.6685651097552653
2.174998086978941,0.8451714369030645,1.0
2.176999005182233,0.8501737324112955,1.0
2.178999923385526,0.8551760279195273,1.0
2.1810008415888182,0.8601783234277582,1.0
2.183001759792111,0.860220457877523,1.0
2.1850026779954033,0.8572289119441967,1.0
2.187003596198696,0.8472243209277326,1.0
2.1890045144019883,0.8705902141252855,1.0
2.191005432605281,0.9156108736993733,1.0
2.1930063508085733,0.9194872430777599,1.0
2.195007269011866,0.9261304413240756,1.0
2.1970081872151583,0.9561442143734578,1.0
2.1990091054184506,0.9676422375538172,1.0
2.2010100236217434,0.9626399420455849,1.0
2.2030109418250357,0.9660036756185049,1.0
2.2050118600283284,0.9702873446779634,1.0
2.2070127782316207,0.9702873446779634,1.0
2.2090136964349134,0.9725438785431653,1.0
2.2110146146382057,0.9775461740513958,1.0
2.2130155328414984,0.9787540282779972,1.0
2.2150164510447907,0.9787540282779972,1.0
2.2170173692480835,0.9787540282779972,1.0
2.2190182874513757,0.9768860676717406,1.0
2.221019205654668,0.971883772163511,1.0
2.2230201238579608,0.9702873446779634,1.0
2.225021042061253,0.9702873446779634,1.0
2.227021960264546,0.9752311201170771,1.0
2.229022878467838,0.9787540282779972,1.0
2.231023796671131,0.9787540282779972,1.0
2.233024714874423,0.9787540282779972,1.0
2.235025633077716,0.9787540282779972,1.0
2.237026551281008,0.9514228151969908,1.0
2.239027469484301,0.9254086938049397,0.8840475534127732
2.241028387687593,0.9137366709524004,0.3523085440637278
2.243029305890886,0.900640757284763,0.10000000149011612
2.245030224094178,0.8862591576986016,0.10000000149011612
2.2470311422974705,0.8703801758438736,0.10000000149011612
2.249032060500763,0.8542388229167548,0.10000000149011612
2.2510329787040555,0.8383298297151223,0.10000000149011612
2.2530338969073482,0.8242371285848886,0.10000000149011612
2.2550348151106405,0.8123839516388305,0.10000000149011612
2.2570357333139333,0.7792306330772707,0.5016035396696341
2.2590366515172255,0.7416868874770488,1.0
2.2610375697205183,0.7416868874770488,1.0
2.2630384879238106,0.7416868874770488,1.0
2.2650394061271033,0.7416868874770488,1.0
2.2670403243303956,0.7416868874770488,1.0
2.269041242533688,0.7416868874770488,1.0
2.2710421607369806,0.7416868874770488,1.0
2.273043078940273,0.7416868874770488,1.0
2.2750439971435656,0.7416868874770488,1.0
2.277044915346858,0.7416868874770488,1.0
2.2790458335501507,0.7416868874770488,1.0
2.281046751753443,0.7416868874770488,1.0
2.2830476699567357,0.7416868874770488,1.0
2.285048588160028,0.7416868874770488,1.0
2.2870495063633207,0.7416868874770488,1.0
2.289050424566613,0.7416868874770488,1.0
2.2910513427699057,0.6711327513452603,1.0
2.293052260973198,0.6010968104255467,0.9270942771458616
2.2950531791764903,0.6254830010281727,0.39535526779681607
2.297054097379783,0.6281875060224729,0.3363837445325797
2.2990550155830753,0.6038013154198474,0.8681227538816251
2.301055933786368,0.5751832460189261,1.0
2.3030568519896604,0.5469531646762698,1.0
2.305057770192953,0.5469531646762698,1.0
2.3070586883962454,0.5487883540438192,1.0
2.309059606599538,0.5537906495520515,1.0
2.3110605248028304,0.5216888804365181,1.0
2.313061443006123,0.47166592535419793,1.0
2.3150623612094154,0.4118209618710811,1.0
2.317063279412708,0.3691528090755587,1.0
2.3190641976160005,0.3691528090755587,1.0
2.3210651158192928,0.3691528090755587,1.0
2.3230660340225855,0.3691528090755587,1.0
2.325066952225878,0.3691528090755587,1.0
2.3270678704291705,0.3691528090755587,1.0
2.329068788632463,0.3691528090755587,1.0
2.3310697068357555,0.3691528090755587,1.0
2.333070625039048,0.3691528090755587,1.0
2.3350715432423406,0.3691528090755587,1.0
2.337072461445633,0.3698222786662724,1.0
2.3390733796489256,0.37482457417450377,1.0
2.341074297852218,0.37761949267559247,1.0
2.34307521605551,0.37761949267559247,1.0
2.345076134258803,0.37387420825202167,1.0
2.347077052462095,0.3691528090755587,1.0
2.349077970665388,0.3691528090755587,1.0
2.35107888886868,0.3691528090755587,1.0
2.353079807071973,0.3691528090755587,1.0
2.3550807252752652,0.3691528090755587,1.0
2.357081643478558,0.3691528090755587,1.0
2.3590825616818503,0.3691528090755587,1.0
2.361083479885143,0.37058303956481087,1.0
2.3630843980884353,0.3755853350730418,1.0
2.365085316291728,0.30638418293925085,1.0
2.3670862344950203,0.186329090741725,1.0
2.3690871526983126,0.17441908627477964,1.0
2.3710880709016053,0.17441908627477964,1.0
2.3730889891048976,0.17441908627477964,1.0
2.3750899073081904,0.14604387516069472,1.0
2.3770908255114827,0.09101862457016185,1.0
2.3790917437147754,0.08128556667440723,1.0
2.3810926619180677,0.08128556667440723,1.0
2.3830935801213604,0.08128556667440723,1.0
2.3850944983246527,0.08128556667440723,1.0
2.3870954165279454,0.08128556667440723,1.0
2.3890963347312377,0.08128556667440723,1.0
2.39109725293453,0.08128556667440723,1.0
2.3930981711378227,0.08128556667440723,1.0
2.395099089341115,0.08128556667440723,1.0
2.3971000075444078,0.08128556667440723,1.0
2.3991009257477,0.08128556667440723,1.0
2.401101843950993,0.08128556667440723,1.0
2.403102762154285,0.08128556667440723,1.0
2.405103680357578,0.08128556667440723,1.0
2.40710459856087,0.08128556667440723,1.0
2.409105516764163,0.08128556667440723,1.0
2.411106434967455,0.08128556667440723,1.0
2.413107353170748,0.08128556667440723,1.0
2.41510827137404,0.08128556667440723,1.0
2.4171091895773325,0.08128556667440723,1.0
2.419110107780625,0.08128556667440723,1.0
2.4211110259839175,0.08128556667440723,1.0
2.42311194418721,0.15561775846846881,0.5640586128311903
2.4251128623905025,0.24994538007918266,0.16768039949802654
2.4271137805937952,0.36937518533822233,0.69941940884719
2.4291146987970875,0.4347116721073938,1.0
2.4311156170003803,0.429709376599162,1.0
2.4331165352036725,0.428419594275796,1.0
2.4351174534069653,0.428419594275796,1.0
2.4371183716102576,0.428419594275796,1.0
2.4391192898135503,0.46592627697510736,1.0
2.4411202080168426,0.5709744826479564,1.0
2.443121126220135,0.6095438898024259,1.0
2.4451220444234276,0.6145461853106577,1.0
2.44712296262672,0.6146866334765408,1.0
2.4491238808300126,0.6160840927270859,1.0
2.451124799033305,0.6210863882353168,1.0
2.4531257172365977,0.7053435837518505,1.0
2.45512663543989,0.8454078579823161,1.0
2.4571275536431827,0.864693731960926,1.0
2.459128471846475,0.869696027469157,1.0
2.4611293900497677,0.8746983229773884,1.0
2.46313030825306,0.8797006184856189,1.0
2.4651312264563523,0.8847029139938503,1.0
2.467132144659645,0.8815358078531679,1.0
2.4691330628629373,0.877153825077591,1.0
2.47113398106623,0.877153825077591,1.0
2.4731348992695223,0.877153825077591,1.0
2.475135817472815,0.877153825077591,1.0
2.4771367356761074,0.8734576975120794,1.0
2.4791376538794,0.8689188809512665,1.0
2.4811385720826924,0.873921176459497,1.0
2.483139490285985,0.8806931188578675,1.0
2.4851404084892774,0.8906977098743276,1.0
2.48714132669257,0.8907796379710922,1.0
2.4891422448958624,0.8857773424628617,1.0
2.4911431630991547,0.8807750469546303,1.0
2.4931440813024475,0.877153825077591,1.0
2.4951449995057398,0.877153825077591,1.0
2.4971459177090325,0.8742348440299699,1.0
2.499146835912325,0.8692325485217394,1.0
2.5011477541156175,0.8686871414775568,1.0
2.50314867231891,0.8696796418498036,1.0
2.5051495905222025,0.8746819373580355,1.0
2.507150508725495,0.877153825077591,1.0
2.5091514269287876,0.877153825077591,1.0
2.51115234513208,0.877153825077591,1.0
2.513153263335372,0.877153825077591,1.0
2.515154181538665,0.877153825077591,1.0
2.517155099741957,0.877153825077591,1.0
2.51915601794525,0.877153825077591,1.0
2.521156936148542,0.8808335670237488,1.0
2.523157854351835,0.8884201087842518,1.0
2.525158772555127,0.9534499503912528,1.0
2.52715969075842,0.9956873954780647,1.0
2.5291606089617122,0.9956873954780647,1.0
2.531161527165005,0.9956873954780647,1.0
2.5331624453682973,0.9956873954780647,1.0
2.53516336357159,1.0005164715817063,1.0
2.5371642817748823,1.0041540790780985,1.0
2.5391651999781746,1.0041540790780985,1.0
2.5411661181814673,1.0070566745063667,1.0
2.5431670363847596,1.0120589700145972,1.0
2.5451679545880523,1.0059600084110878,0.5279789888931168
2.5471688727913446,0.9998597301060261,0.10000000149011612
2.5491697909946374,0.9995470866367615,0.10000000149011612
2.5511707091979297,0.995777662684679,0.36723804362442986
2.5531716274012224,0.9885868628915953,0.8989770529735933
2.5551725456045147,0.991272641463782,1.0
2.5571734638078074,0.9956873954780647,1.0
2.5591743820110997,0.9956873954780647,1.0
2.5611753002143924,0.9956873954780647,1.0
2.5631762184176847,0.9956873954780647,1.0
2.565177136620977,0.9956873954780647,1.0
2.5671780548242698,0.9956873954780647,1.0
2.569178973027562,0.9956873954780647,1.0
2.5711798912308548,0.9974242711294963,1.0
2.573180809434147,1.0024265666377268,1.0
2.57518172763744,1.000879296010238,1.0
2.577182645840732,0.9958770005020074,1.0
2.579183564044025,0.9956873954780647,1.0
2.581184482247317,0.9956873954780647,1.0
2.58318540045061,0.9956873954780647,1.0
2.585186318653902,0.9985736052869791,1.0
2.5871872368571944,1.0035759007952096,1.0
2.589188155060487,1.0041540790780985,1.0
2.5911890732637795,1.0031943499445584,1.0
2.593189991467072,0.998192054436327,1.0
2.5951909096703645,0.9956873954780647,1.0
2.597191827873657,0.9956873954780647,1.0
2.5991927460769495,0.9956873954780647,1.0
2.6011936642802422,0.9956873954780647,1.0
2.6031945824835345,0.9956873954780647,1.0
2.6051955006868273,0.9935783321870408,1.0
2.6071964188901195,0.9885760366788103,1.0
2.6091973370934123,0.9908676825854839,1.0
2.6111982552967046,0.9956873954780647,1.0
2.613199173499997,0.9956873954780647,1.0
2.6152000917032896,0.9956873954780647,1.0
2.617201009906582,0.9956873954780647,1.0
2.6192019281098746,0.9956873954780647,1.0
2.621202846313167,0.9956873954780647,1.0
2.6232037645164596,0.990891090613129,1.0
2.625204682719752,0.9126333725825937,1.0
2.6272056009230447,0.6325048241216376,1.0
2.629206519126337,0.5073467818970125,1.0
2.6312074373296297,0.49734219088054843,1.0
2.633208355532922,0.49615306307606666,1.0
2.6352092737362143,0.49615306307606666,1.0
2.637210191939507,0.49615306307606666,1.0
2.6392111101427993,0.49615306307606666,1.0
2.641212028346092,0.49615306307606666,1.0
2.6432129465493843,0.49213390472902274,1.0
2.645213864752677,0.4876863794760329,1.0
2.6472147829559693,0.4876863794760329,1.0
2.649215701159262,0.4876863794760329,1.0
2.6512166193625544,0.4876863794760329,1.0
2.653217537565847,0.4876863794760329,1.0
2.6552184557691394,0.48785257647232916,1.0
2.657219373972432,0.492854871980561,1.0
2.6592202921757244,0.4944489586633414,1.0
2.6612212103790167,0.48944666315511043,1.0
2.6632221285823094,0.4812023558177252,1.0
2.6652230467856017,0.47119776480126463,1.0
2.6672239649888945,0.37037470811873563,1.0
2.6692248831921868,0.2245450366787245,1.0
2.6712258013954795,-0.03557432974934027,1.0
2.673226719598772,-0.21579741621150106,1.0
2.6752276378020645,-0.335852508409054,1.0
2.677228556005357,-0.17321470271687422,0.5332043137394009
2.6792294742086495,-0.01458230315552278,0.19853469858999478
2.681230392411942,-0.0464719370204949,0.7302737079390402
2.683231310615234,-0.06511291983743073,1.0
2.685232228818527,-0.070115215345663,1.0
2.687233147021819,-0.035089783576983,1.0
2.689234065225112,0.005623798909990985,1.0
2.691234983428404,0.010626094418221932,1.0
2.693235901631697,0.011475805821818508,1.0
2.695236819834989,0.0064735103135875605,1.0
2.697237738038282,0.005085414274102362,1.0
2.699238656241574,0.004336357389388645,1.0
2.701239574444867,-0.02067512015177142,1.0
2.7032404926481592,-0.03556028493269503,1.0
2.705241410851452,-0.030557989424463194,1.0
2.7072423290547443,-0.025555693916232247,1.0
2.7092432472580366,-0.0205533984080013,1.0
2.7112441654613293,-0.015551102899769909,1.0
2.7132450836646216,-0.011847952925965188,1.0
2.7152460018679143,-0.011847952925965188,1.0
2.7172469200712066,-0.014685005876819979,1.0
2.7192478382744993,-0.019687301385051814,1.0
2.7212487564777916,-0.015939676158715166,1.0
2.7232496746810844,-0.01093738065048333,1.0
2.7252505928843767,-0.005935085142252827,1.0
2.7272515110876694,-0.003381269325931413,1.0
2.7292524292909617,-0.003381269325931413,1.0
2.7312533474942544,-0.007367656434270398,1.0
2.7332542656975467,-0.00767196079367638,1.0
2.735255183900839,0.032346403272165425,1.0
2.7372561021041317,0.006447761483166392,1.0
2.739257020307424,-0.11360733071437501,1.0
2.7412579385107168,-0.14371707667711364,1.0
2.743258856714009,-0.13884820692647315,1.0
2.7452597749173018,-0.13884820692647315,1.0
2.747260693120594,-0.13884820692647315,1.0
2.749261611323887,-0.13884820692647315,1.0
2.751262529527179,-0.135638966336026,1.0
2.753263447730472,-0.13063667082779418,1.0
2.755264365933764,-0.12563437531956323,1.0
2.7572652841370564,-0.12063207981133228,1.0
2.759266202340349,-0.11562978430310089,1.0
2.7612671205436414,-0.12473082545237713,1.0
2.763268038746934,-0.1447400074853049,1.0
2.7652689569502265,-0.14731489052650693,1.0
2.767269875153519,-0.14642070387037842,1.0
2.7692707933568115,-0.14141840836214747,1.0
2.771271711560104,-0.13884820692647315,1.0
2.7732726297633965,-0.13884820692647315,1.0
2.7752735479666892,-0.13884820692647315,1.0
2.7772744661699815,-0.13834259352929035,1.0
2.7792753843732743,-0.1333402980210585,1.0
2.7812763025765666,-0.13242504414005074,1.0
2.783277220779859,-0.1374273396482808,1.0
2.7852781389831516,-0.13526677869643366,1.0
2.787279057186444,-0.13026448318820272,1.0
2.7892799753897366,-0.12526218767997088,1.0
2.791280893593029,-0.1219148397264056,1.0
2.7932818117963216,-0.1219148397264056,1.0
2.795282729999614,-0.11872198475531137,1.0
2.7972836482029066,-0.11371968924707998,1.0
2.799284566406199,-0.11344815612637182,1.0
2.8012854846094917,-0.10094270995612797,0.8653856789620431
2.803286402812784,-0.05154504181234776,0.3336466696129976
2.8052873210160763,-0.019717951271251533,0.10000000149011612
2.807288239219369,-0.001662790921228563,0.10000000149011612
2.8092891574226613,0.059407180483755706,0.5615703629044871
2.811290075625954,0.11515230107454277,1.0
2.8132909938292463,0.11515230107454277,1.0
2.815291912032539,0.11515230107454277,1.0
2.8172928302358313,0.11515230107454277,1.0
2.819293748439124,0.11515230107454277,1.0
2.8212946666424163,0.11515230107454277,1.0
2.823295584845709,0.11515230107454277,1.0
2.8252965030490014,0.11515230107454277,1.0
2.827297421252294,0.11515230107454277,1.0
2.8292983394555864,0.11515230107454277,1.0
2.8312992576588787,0.11515230107454277,1.0
2.8333001758621714,0.11515230107454277,1.0
2.8353010940654637,0.11515230107454277,1.0
2.8373020122687564,0.11515230107454277,1.0
2.8393029304720487,0.11515230107454277,1.0
2.8413038486753415,0.11515230107454277,1.0
2.8433047668786338,0.11515230107454277,1.0
2.8453056850819265,0.11515230107454277,1.0
2.847306603285219,0.11515230107454277,1.0
2.8493075214885115,0.11515230107454277,1.0
2.851308439691804,0.11515230107454277,1.0
2.8533093578950965,0.11515230107454277,1.0
2.855310276098389,0.11515230107454277,1.0
2.857311194301681,0.11515230107454277,1.0
2.859312112504974,0.11755162390839313,1.0
2.861313030708266,0.12255391941662408,1.0
2.863313948911559,0.11968175442429718,1.0
2.865314867114851,0.11515230107454277,1.0
2.867315785318144,0.11515230107454277,1.0
2.869316703521436,0.08499105745097513,1.0
2.871317621724729,0.009956624827494931,1.0
2.873318539928021,-0.011847952925965188,1.0
2.875319458131314,-0.011847952925965188,1.0
2.8773203763346062,-0.011847952925965188,1.0
2.8793212945378985,-0.0134701292419237,1.0
2.8813222127411913,-0.018472424750155536,1.0
2.8833231309444836,-0.029794887723161967,1.0
2.8853240491477763,-0.04480177424785792,1.0
2.8873249673510686,-0.06450665192136773,1.0
2.8893258855543613,-0.07958142172623628,1.0
2.8913268037576536,-0.07958142172623628,1.0
2.8933277219609463,-0.07958142172623628,1.0
2.8953286401642386,-0.07958142172623628,1.0
2.8973295583675314,-0.07958142172623628,1.0
2.8993304765708237,-0.07958142172623628,1.0
2.9013313947741164,-0.07958142172623628,1.0
2.9033323129774087,-0.08196435894073373,1.0
2.905333231180701,-0.08696665444896423,1.0
2.9073341493839937,-0.09858537527188371,0.5832181372672633
2.909335067587286,-0.1127707863263292,0.14852087506201445
2.9113359857905787,-0.13434318570557924,0.6802598844111779
2.913336903993871,-0.14731489052650693,1.0
2.9153378221971638,-0.14731489052650693,1.0
2.917338740400456,-0.14731489052650693,1.0
2.9193396586037488,-0.14731489052650693,1.0
2.921340576807041,-0.14731489052650693,1.0
2.923341495010334,-0.14731489052650693,1.0
2.925342413213626,-0.14731489052650693,1.0
2.9273433314169184,-0.1536022867525766,1.0
2.929344249620211,-0.16360687776903937,1.0
2.9313451678235034,-0.12621021279968714,0.5023500146475508
2.933346086026796,-0.08587086615471717,0.22938899768184498
2.9353470042300884,-0.04647778902739885,0.7611280070308905
2.937347922433381,-0.023271070417853146,1.0
2.9393488406366735,-0.013266479401392584,1.0
2.941349758839966,-0.016140985196483548,1.0
2.9433506770432585,-0.020314636525998964,1.0
2.945351595246551,-0.020314636525998964,1.0
2.9473525134498435,-0.0013822237648439817,1.0
2.9493534316531362,0.038636140301012034,1.0
2.9513543498564285,0.051323291285844785,1.0
2.953355268059721,0.05588551587430546,1.0
2.9553561862630136,0.05588551587430546,1.0
2.957357104466306,0.05192955920190867,1.0
2.9593580226695986,0.041924968185444556,1.0
2.961358940872891,0.03543626292161095,1.0
2.9633598590761836,0.030845948699976145,1.0
2.965360777279476,0.06586201725759233,1.0
2.9673616954827686,0.089752250274441,1.0
2.969362613686061,0.089752250274441,1.0
2.9713635318893536,0.04909718785656603,1.0
2.973364450092646,-0.015932653750435843,1.0
2.9753653682959387,0.0310027824852237,1.0
2.977366286499231,0.07161805125606557,1.0
2.9793672047025233,0.06661575574783507,1.0
2.981368122905816,0.06709093870907656,1.0
2.9833690411091083,0.07209323421730707,1.0
2.985369959312401,0.07281888307437345,1.0
2.9873708775156933,0.07281888307437345,1.0
2.989371795718986,0.07281888307437345,1.0
2.9913727139222783,0.07046871709858271,1.0
2.993373632125571,0.06546642159035088,1.0
2.9953745503288634,0.060464126082119485,1.0
2.997375468532156,0.05588551587430546,1.0
2.9993763867354484,0.05588551587430546,1.0
3.0013773049387407,0.05588551587430546,1.0
3.0033782231420334,0.05588551587430546,1.0
3.0053791413453257,0.0663840162741276,1.0
3.0073800595486184,0.08132067871587934,1.0
3.0093809777519107,0.0863229742241094,1.0
3.0113818959552034,0.09132526973234123,1.0
3.0133828141584957,0.09632756524057173,1.0
3.0153837323617885,0.09821893387447478,1.0
3.0173846505650808,0.09821893387447478,1.0
3.0193855687683735,0.09821893387447478,1.0
3.021386486971666,0.09821893387447478,1.0
3.0233874051749585,0.09821893387447478,1.0
3.025388323378251,0.09821893387447478,1.0
3.027389241581543,0.09821893387447478,1.0
3.029390159784836,0.09821893387447478,1.0
3.031391077988128,0.09821893387447478,1.0
3.033391996191421,0.09821893387447478,1.0
3.035392914394713,0.09821893387447478,1.0
3.037393832598006,0.09821893387447478,1.0
3.039394750801298,0.09821893387447478,1.0
3.041395669004591,0.09821893387447478,1.0
3.043396587207883,0.09821893387447478,1.0
3.045397505411176,0.09821893387447478,1.0
3.047398423614468,0.09821893387447478,1.0
3.0493993418177605,0.09473581936055453,1.0
3.0514002600210532,0.08973352385232225,1.0
3.0534011782243455,0.08473122834409175,1.0
3.0554020964276383,0.02680338232524848,1.0
3.0574030146309306,-0.14827696046281025,1.0
3.0594039328342233,-0.15857298142347398,0.6710533596819859
3.0614048510375156,-0.06728108839826019,0.13931435033294037
3.0634057692408083,-0.08021929047962928,0.5924246619964553
3.0654066874441006,-0.1023550918243119,1.0
3.0674076056473933,-0.12736656936547242,1.0
3.0694085238506856,-0.14155417492250333,1.0
3.0714094420539784,-0.14655647043073472,1.0
3.0734103602572707,-0.14307101511404818,1.0
3.075411278460563,-0.13884820692647315,1.0
3.0774121966638557,-0.13884820692647315,1.0
3.079413114867148,-0.13653081218938823,1.0
3.0814140330704407,-0.1315285166811564,1.0
3.083414951273733,-0.13423682547995286,1.0
3.0854158694770257,-0.13845729286476205,1.0
3.087416787680318,-0.13345499735653155,1.0
3.0894177058836108,-0.13231034480457948,1.0
3.091418624086903,-0.13731264031280999,1.0
3.093419542290196,-0.13884820692647315,1.0
3.095420460493488,-0.13884820692647315,1.0
3.097421378696781,-0.13884820692647315,1.0
3.099422296900073,-0.1373079587072792,1.0
3.1014232151033654,-0.13230566319904824,1.0
3.103424133306658,-0.13038152332643937,1.0
3.1054250515099504,-0.13038152332643937,1.0
3.107425969713243,-0.13038152332643937,1.0
3.1094268879165354,-0.1292298483661911,1.0
3.111427806119828,-0.12422755285795928,1.0
3.1134287243231205,-0.11653567497305106,1.0
3.115429642526413,-0.10653108395658695,1.0
3.1174305607297055,-0.05425159500906984,1.0
3.119431478932998,-0.002618167624627965,1.0
3.1214323971362905,0.002384127883602538,1.0
3.123433315339583,0.005085414274102362,1.0
3.1254342335428755,0.005085414274102362,1.0
3.127435151746168,0.005085414274102362,1.0
3.1294360699494606,0.005085414274102362,1.0
3.131436988152753,0.005085414274102362,1.0
3.1334379063560456,0.0031729784153160523,1.0
3.135438824559338,-0.001829317092914895,1.0
3.1374397427626306,-0.003381269325931413,1.0
3.139440660965923,-0.003381269325931413,1.0
3.1414415791692156,-0.003381269325931413,1.0
3.143442497372508,-0.004905131925772022,1.0
3.1454434155758006,-0.009907427434003857,1.0
3.147444333779093,-0.03328034303985161,1.0
3.1494452519823852,-0.06829641159746824,1.0
3.151446170185678,-0.0711147381262025,1.0
3.1534470883889703,-0.0711147381262025,1.0
3.155448006592263,-0.0711147381262025,1.0
3.1574489247955553,-0.07378793488352597,1.0
3.159449842998848,-0.07879023039175781,1.0
3.1614507612021403,-0.08379252589998876,1.0
3.163451679405433,-0.09103496965407265,1.0
3.1654525976087253,-0.11104415168699378,1.0
3.167453515812018,-0.14704569820857172,1.0
3.1694544340153104,-0.2020709487991117,1.0
3.1714553522186026,-0.21504835932677802,1.0
3.1734562704218954,-0.21504835932677802,1.0
3.1754571886251877,-0.21504835932677802,1.0
3.1774581068284804,-0.21694440956621186,1.0
3.1794590250317727,-0.22194670507444192,1.0
3.1814599432350654,-0.22694900058267375,1.0
3.1834608614383577,-0.2319512960909047,1.0
3.1854617796416504,-0.15616078417440926,0.47149571555558256
3.1874626978449427,-0.07761456220315877,0.2602432967736742
3.1894636160482355,0.006173887559716373,0.7919823061227679
3.1914645342515278,0.048088301864985805,1.0
3.1934654524548205,0.06309518838968176,1.0
3.195466370658113,0.05976890766099441,1.0
3.197467288861405,0.05588551587430546,1.0
3.199468207064698,0.05588551587430546,1.0
3.20146912526799,0.0532287047363349,1.0
3.203470043471283,0.048226409228103506,1.0
3.205470961674575,0.04741883227427168,1.0
3.207471879877868,0.04814916273686887,1.0
3.20947279808116,0.053151458245099814,1.0
3.211473716284453,0.05815375375333165,1.0
3.213474634487745,0.06315604926156215,1.0
3.215475552691038,0.06054605417888537,1.0
3.21747647089433,0.05759430189256198,1.0
3.219477389097623,0.08260577943372205,1.0
3.2214783073009152,0.09821893387447478,1.0
3.2234792255042075,0.09821893387447478,1.0
3.2254801437075002,0.09821893387447478,1.0
3.2274810619107925,0.09821893387447478,1.0
3.2294819801140853,0.09821893387447478,1.0
3.2314828983173776,0.09821893387447478,1.0
3.2334838165206703,0.09821893387447478,1.0
3.2354847347239626,0.10124793265203813,1.0
3.2374856529272553,0.10625022816026952,1.0
3.2394865711305476,0.106685617474509,1.0
3.2414874893338403,0.106685617474509,1.0
3.2434884075371326,0.106685617474509,1.0
3.245489325740425,0.106685617474509,1.0
3.2474902439437177,0.106685617474509,1.0
3.24949116214701,0.106685617474509,1.0
3.2514920803503027,0.106685617474509,1.0
3.253492998553595,0.106685617474509,1.0
3.2554939167568877,0.106685617474509,1.0
3.25749483496018,0.106685617474509,1.0
3.2594957531634727,0.10289585779840715,1.0
3.261496671366765,0.09821893387447478,1.0
3.2634975895700578,0.09821893387447478,1.0
3.26549850777335,0.09821893387447478,1.0
3.267499425976643,0.09821893387447478,1.0
3.269500344179935,0.09481774745731908,1.0
3.2715012623832274,0.08981545194908813,1.0
3.27350218058652,0.09469134410802527,1.0
3.2755030987898124,0.0923201109073517,1.0
3.277504016993105,0.07231092887442347,1.0
3.2795049351963974,0.06736481263254968,1.0
3.28150585339969,0.07236710814078151,1.0
3.2835067716029824,0.06826836249973445,1.0
3.285507689806275,0.06435219947433968,1.0
3.2875086080095675,0.06435219947433968,1.0
3.28950952621286,0.06172815957507449,1.0
3.2915104444161525,0.056725864066843545,1.0
3.2935113626194448,0.1016669363469287,1.0
3.2955122808227375,0.14901903547467832,1.0
3.29751319902603,0.14901903547467832,1.0
3.2995141172293225,0.16019636867627396,1.0
3.301515035432615,0.18520784621742825,1.0
3.3035159536359076,0.1875790794180996,1.0
3.3055168718392,0.18257678390986865,1.0
3.3075177900424926,0.17757448840163637,1.0
3.309518708245785,0.11901228483355819,1.0
3.3115196264490776,-0.03105658041338266,1.0
3.31352054465237,-0.026270809160851005,0.6401990605901356
3.3155214628556626,0.0525153450938034,0.10846005124097213
3.317522381058955,0.02546327274246707,0.6232789610883055
3.319523299262247,0.0036270941516742816,1.0
3.32152421746554,-0.0013752013565571097,1.0
3.3235251356688322,-0.003381269325931413,1.0
3.325526053872125,-0.003381269325931413,1.0
3.3275269720754173,0.0011528656293537942,1.0
3.32952789027871,-0.0034725606337659976,1.0
3.3315288084820023,-0.04349092469961313,1.0
3.333529726685295,-0.06525570880608056,1.0
3.3355306448885873,-0.07025800431431106,1.0
3.33753156309188,-0.0711147381262025,1.0
3.3395324812951723,-0.0711147381262025,1.0
3.341533399498465,-0.0711147381262025,1.0
3.3435343177017574,-0.0711147381262025,1.0
3.3455352359050496,-0.0711147381262025,1.0
3.3475361541083424,-0.06735774968880781,1.0
3.3495370723116347,-0.06264805452616828,1.0
3.3515379905149274,-0.06264805452616828,1.0
3.3535389087182197,-0.06264805452616828,1.0
3.3555398269215124,-0.06264805452616828,1.0
3.3575407451248047,-0.06264805452616828,1.0
3.3595416633280974,-0.06264805452616828,1.0
3.3615425815313897,-0.05774173193129073,1.0
3.3635434997346825,-0.05273943642305845,1.0
3.3655444179379748,-0.04773714091482795,1.0
3.367545336141267,-0.042734845406597444,1.0
3.36954625434456,-0.03773254989836605,1.0
3.371547172547852,-0.046283502397930665,1.0
3.373548090751145,-0.034167507287665266,1.0
3.375549008954437,0.060876107368721843,1.0
3.37754992715773,0.106685617474509,1.0
3.379550845361022,0.106685617474509,1.0
3.381551763564315,0.106685617474509,1.0
3.383552681767607,0.10336167754858883,1.0
3.3855535999709,0.07835020000742876,1.0
3.387554518174192,0.0665548948759529,1.0
3.389555436377485,0.07155719038418473,1.0
3.391556354580777,0.06907828025633167,1.0
3.3935572727840695,0.06435219947433968,1.0
3.3955581909873622,0.06435219947433968,1.0
3.3975591091906545,0.06616632161700675,1.0
3.3995600273939472,0.07116861712523859,1.0
3.4015609455972395,0.07281888307437345,1.0
3.4035618638005323,0.07281888307437345,1.0
3.4055627820038246,0.07281888307437345,1.0
3.4075637002071173,0.07139333419065119,1.0
3.4095646184104096,0.06639103868242024,1.0
3.4115655366137023,0.06435219947433968,1.0
3.4135664548169946,0.06435219947433968,1.0
3.415567373020287,0.06885356319091906,1.0
3.4175682912235796,0.037561711831943345,1.0
3.419569209426872,-0.13251633544788533,1.0
3.4215701276301647,-0.21247347628557245,1.0
3.423571045833457,-0.20747118077734195,1.0
3.4255719640367497,-0.20658167572674424,1.0
3.427572882240042,-0.20723007809257554,1.0
3.4295738004433347,-0.21223237360080693,1.0
3.431574718646627,-0.21504835932677802,1.0
3.4335756368499197,-0.21504835932677802,1.0
3.435576555053212,-0.21504835932677802,1.0
3.4375774732565048,-0.21478853021989108,1.0
3.439578391459797,-0.20978623471166058,1.0
3.4415793096630893,-0.27489566361269313,1.0
3.443580227866382,-0.46498289292548467,1.0
3.4455811460696744,-0.69176220557542,1.0
3.447582064272967,-0.9368746854787888,1.0
3.4495829824762594,-1.1819871653821037,1.0
3.451583900679552,-1.2841576466559659,0.8502073544087787
3.4535848188828444,-1.0218497759431417,0.3184683450598029
3.455585737086137,-0.9595743276893902,0.4132706672695642
3.4575866552894294,-1.0367972645977046,0.9450096766186097
3.459587573492722,-1.0268434397411892,1.0
3.4615884916960145,-1.0119372077353854,1.0
3.463589409899307,-1.0169395032436177,1.0
3.4655903281025995,-1.0193833013299956,1.0
3.4675912463058918,-1.0193833013299956,1.0
3.4695921645091845,-1.0193833013299956,1.0
3.471593082712477,-1.0193833013299956,1.0
3.4735940009157695,-1.0193833013299956,1.0
3.475594919119062,-1.021553225492902,1.0
3.4775958373223546,-1.0265555210011335,1.0
3.479596755525647,-1.0315578165093644,1.0
3.4815976737289396,-1.03607322504253,1.0
3.483598591932232,-1.031070929534299,1.0
3.4855995101355246,-1.024287283122105,1.0
3.487600428338817,-1.0142826921056427,1.0
3.489601346542109,-1.0109166177299613,1.0
3.491602264745402,-1.0109166177299613,1.0
3.493603182948694,-1.0157737834667797,1.0
3.495604101151987,-1.0193833013299956,1.0
3.4976050193552792,-1.0193833013299956,1.0
3.499605937558572,-1.0164526162685505,1.0
3.5016068557618643,-1.01145032076032,1.0
3.503607773965157,-1.0913512823316807,1.0
3.5056086921684493,-1.1643211269166414,1.0
3.507609610371742,-1.1693234224248734,1.0
3.5096105285750343,-1.1819520533406027,1.0
3.511611446778327,-1.2019612353735305,1.0
3.5136123649816193,-1.2097303597496685,1.0
3.5156132831849116,-1.2147326552578988,1.0
3.5176142013882044,-1.2197349507661308,1.0
3.5196151195914966,-1.2225837077308082,1.0
3.5216160377947894,-1.2225837077308082,1.0
3.5236169559980817,-1.2188922617708262,1.0
3.5256178742013744,-1.2141170241307744,1.0
3.5276187924046667,-1.2141170241307744,1.0
3.5296197106079594,-1.215881989415383,1.0
3.5316206288112517,-1.220884284923614,1.0
3.5336215470145445,-1.2225837077308082,1.0
3.5356224652178367,-1.2225837077308082,1.0
3.537623383421129,-1.2177429276133431,1.0
3.5396243016244218,-1.2141170241307744,1.0
3.541625219827714,-1.2141170241307744,1.0
3.543626138031007,-1.2141170241307744,1.0
3.545627056234299,-1.2141170241307744,1.0
3.547627974437592,-1.2141170241307744,1.0
3.549628892640884,-1.2141170241307744,1.0
3.551629810844177,-1.2141170241307744,1.0
3.553630729047469,-1.2141170241307744,1.0
3.555631647250762,-1.2141170241307744,1.0
3.557632565454054,-1.2141170241307744,1.0
3.559633483657347,-1.2111207965919095,1.0
3.561634401860639,-1.1861093190507583,1.0
3.5636353200639315,-1.171783606130605,1.0
3.565636238267224,-1.171783606130605,1.0
3.5676371564705165,-1.168108545789976,1.0
3.5696380746738092,-1.163316922530571,1.0
3.5716389928771015,-1.163316922530571,1.0
3.5736399110803942,-1.1755569801873564,1.0
3.5756408292836865,-1.2105730487449728,1.0
3.5776417474869793,-1.1790377538984935,0.6506497102824738
3.5796426656902716,-1.112757338414434,0.11891070093342826
3.5816435838935643,-1.058537909175643,0.6128283113959675
3.5836445020968566,-1.0180232949236854,1.0
3.585645420300149,-1.0130209994154549,1.0
3.5876463385034416,-1.0109166177299613,1.0
3.589647256706734,-1.0109166177299613,1.0
3.5916481749100266,-1.0109166177299613,1.0
3.593649093113319,-1.0109166177299613,1.0
3.5956500113166117,-1.0109166177299613,1.0
3.597650929519904,-1.0109166177299613,1.0
3.5996518477231967,-1.0109166177299613,1.0
3.601652765926489,-1.0068693697497402,1.0
3.6036536841297817,-0.9989527747994109,1.0
3.605654602333074,-0.9689390017500252,1.0
3.6076555205363667,-0.9537705998345727,1.0
3.609656438739659,-0.9587728953428027,1.0
3.6116573569429513,-0.9564578414084828,1.0
3.613658275146244,-0.9563127116370889,1.0
3.6156591933495363,-1.0763678038346307,1.0
3.617660111552829,-1.1548502389305373,1.0
3.6196610297561214,-1.1548502389305373,1.0
3.621661947959414,-1.1548502389305373,1.0
3.6236628661627064,-1.1548502389305373,1.0
3.625663784365999,-1.1548502389305373,1.0
3.6276647025692914,-1.1548502389305373,1.0
3.629665620772584,-1.1548502389305373,1.0
3.6316665389758764,-1.1548502389305373,1.0
3.633667457179169,-1.1548502389305373,1.0
3.6356683753824615,-1.1548502389305373,1.0
3.6376692935857537,-1.1548502389305373,1.0
3.6396702117890465,-1.1548502389305373,1.0
3.6416711299923388,-1.1548502389305373,1.0
3.6436720481956315,-1.1548502389305373,1.0
3.645672966398924,-1.1548502389305373,1.0
3.6476738846022165,-1.1554167131996032,1.0
3.649674802805509,-1.160419008707834,1.0
3.6516757210088016,-1.163316922530571,1.0
3.653676639212094,-1.163316922530571,1.0
3.6556775574153866,-1.1596746334286476,1.0
3.657678475618679,-1.1548502389305373,1.0
3.659679393821971,-1.1548502389305373,1.0
3.661680312025264,-1.1548502389305373,1.0
3.663681230228556,-1.1548502389305373,1.0
3.665682148431849,-1.1548502389305373,1.0
3.667683066635141,-1.1548502389305373,1.0
3.669683984838434,-1.1548502389305373,1.0
3.6716849030417262,-1.1548502389305373,1.0
3.673685821245019,-1.1548502389305373,1.0
3.6756867394483113,-1.1548502389305373,1.0
3.677687657651604,-1.1548502389305373,1.0
3.6796885758548963,-1.1548502389305373,1.0
3.681689494058189,-1.1548502389305373,1.0
3.6836904122614813,-1.1548502389305373,1.0
3.6856913304647736,-1.1548502389305373,1.0
3.6876922486680663,-1.1548502389305373,1.0
3.6896931668713586,-1.1548502389305373,1.0
3.6916940850746514,-1.144948643235697,1.0
3.6936950032779436,-1.0549073240875524,1.0
3.6956959214812364,-1.0024499341299276,1.0
3.6976968396845287,-1.0024499341299276,1.0
3.6996977578878214,-1.1511119769153155,1.0
3.7016986760911137,-1.3432242932198475,0.9828310755052361
3.7036995942944064,-1.1462589075832375,0.4510920661561424
3.7057005124976987,-0.9811576995815772,0.2806469461730893
3.707701430700991,-0.8779853547243142,0.8123859555221348
3.7097023489042837,-0.841582945729284,1.0
3.711703267107576,-0.841582945729284,1.0
3.7137041853108688,-0.841582945729284,1.0
3.715705103514161,-0.841582945729284,1.0
3.717706021717454,-0.841582945729284,1.0
3.719706939920746,-0.841582945729284,1.0
3.721707858124039,-0.841582945729284,1.0
3.723708776327331,-0.841582945729284,1.0
3.725709694530624,-0.841582945729284,1.0
3.727710612733916,-0.841582945729284,1.0
3.729711530937209,-0.841582945729284,1.0
3.731712449140501,-0.841582945729284,1.0
3.7337133673437934,-0.841582945729284,1.0
3.735714285547086,-0.841582945729284,1.0
3.7377152037503785,-0.841582945729284,1.0
3.739716121953671,-0.841582945729284,1.0
3.7417170401569635,-0.841582945729284,1.0
3.7437179583602562,-0.841582945729284,1.0
3.7457188765635485,-0.841582945729284,1.0
3.7477197947668413,-0.841582945729284,1.0
3.7497207129701335,-0.841582945729284,1.0
3.7517216311734263,-0.841582945729284,1.0
3.7537225493767186,-0.841582945729284,1.0
3.7557234675800113,-0.841582945729284,1.0
3.7577243857833036,-0.841582945729284,1.0
3.759725303986596,-0.841582945729284,1.0
3.7617262221898886,-0.841582945729284,1.0
3.763727140393181,-0.810426860930701,1.0
3.7657280585964736,-0.7554016103401562,1.0
3.767728976799766,-0.6916358022261089,1.0
3.7697298950030587,-0.6383825393284712,1.0
3.771730813206351,-0.6383825393284712,1.0
3.7737317314096437,-0.6383825393284712,1.0
3.775732649612936,-0.6383825393284712,1.0
3.7777335678162287,-0.6344008338256613,1.0
3.779734486019521,-0.6299158557284374,1.0
3.7817354042228133,-0.6299158557284374,1.0
3.783736322426106,-0.6299158557284374,1.0
3.7857372406293983,-0.6299158557284374,1.0
3.787738158832691,-0.6263227234845736,1.0
3.7897390770359833,-0.6215779162804642,1.0
3.791739995239276,-0.626580211788696,1.0
3.7937409134425684,-0.6299158557284374,1.0
3.795741831645861,-0.6299158557284374,1.0
3.7977427498491534,-0.6299158557284374,1.0
3.799743668052446,-0.6299158557284374,1.0
3.8017445862557384,-0.6299158557284374,1.0
3.803745504459031,-0.6286377774188927,1.0
3.8057464226623234,-0.6236354819106622,1.0
3.8077473408656157,-0.6242651578543761,1.0
3.8097482590689085,-0.6292674533626079,1.0
3.8117491772722008,-0.6081463900164326,1.0
3.8137500954754935,-0.5884719427788667,1.0
3.8157510136787858,-0.5934742382870977,1.0
3.8177519318820785,-0.6057587711964127,1.0
3.819752850085371,-0.6257679532293365,1.0
3.8217537682886635,-0.6259505358449808,1.0
3.823754686491956,-0.6209482403367499,1.0
3.8257556046952486,-0.6159459448285185,1.0
3.827756522898541,-0.6333708806091876,1.0
3.829757441101833,-0.6833938356914966,1.0
3.831758359305126,-0.6940725779041976,1.0
3.833759277508418,-0.6891826409286748,1.0
3.835760195711711,-0.6891826409286748,1.0
3.837761113915003,-0.687532374979539,1.0
3.839762032118296,-0.6825300794713067,1.0
3.841762950321588,-0.6807159573286405,1.0
3.843763868524881,-0.6807159573286405,1.0
3.8457647867281732,-0.6854420381106348,1.0
3.847765704931466,-0.6891826409286748,1.0
3.8497666231347583,-0.6891826409286748,1.0
3.851767541338051,-0.6975814412485346,1.0
3.8537684595413433,-0.7125883277732274,1.0
3.8557693777446356,-0.7145826917287761,1.0
3.8577702959479283,-0.71370957229753,1.0
3.8597712141512206,-0.7087072767892999,1.0
3.8617721323545133,-0.7037049812810681,1.0
3.8637730505578056,-0.6987026857728376,1.0
3.8657739687610984,-0.6937003902646053,1.0
3.8677748869643906,-0.6891826409286748,1.0
3.8697758051676834,-0.6891826409286748,1.0
3.8717767233709757,-0.6891826409286748,1.0
3.8737776415742684,-0.6891826409286748,1.0
3.8757785597775607,-0.6891826409286748,1.0
3.8777794779808534,-0.6892786138420304,1.0
3.8797803961841457,-0.6942809093502609,1.0
3.881781314387438,-0.6992832048584918,1.0
3.8837822325907307,-0.7042855003667228,1.0
3.885783150794023,-0.7092877958749537,1.0
3.8877840689973158,-0.7142900913831856,1.0
3.889784987200608,-0.7145826917287761,1.0
3.891785905403901,-0.6909218573828442,1.0
3.893786823607193,-0.5958782427264571,1.0
3.895787741810486,-0.5537157033281326,1.0
3.897788660013778,-0.5537157033281326,1.0
3.899789578217071,-0.5537157033281326,1.0
3.901790496420363,-0.5528589695162398,1.0
3.9037914146236554,-0.5478566740080093,1.0
3.905792332826948,-0.5428543784997775,1.0
3.9077932510302404,-0.5378520829915474,1.0
3.909794169233533,-0.5603776279965627,1.0
3.9117950874368255,-0.5880505982812148,1.0
3.913796005640118,-0.5930528937894466,1.0
3.9157969238434105,-0.5980551892976775,1.0
3.9177978420467032,-0.6030574848059098,1.0
3.9197987602499955,-0.6080597803141403,1.0
3.9217996784532883,-0.6129029012343681,1.0
3.9238005966565805,-0.6079006057261371,1.0
3.9258015148598733,-0.6045158049283361,1.0
3.9278024330631656,-0.6045158049283361,1.0
3.929803351266458,-0.6076712070551946,1.0
3.9318042694697506,-0.612673502563426,1.0
3.933805187673043,-0.6270624171582302,1.0
3.9358061058763356,-0.6543585181977756,1.0
3.937807024079628,-0.7193883598047774,1.0
3.9398079422829206,-0.7512162549968258,1.0
3.941808860486213,-0.7562185505050563,1.0
3.9438097786895057,-0.7569161097289454,1.0
3.945810696892798,-0.7569161097289454,1.0
3.9478116150960907,-0.7569161097289454,1.0
3.949812533299383,-0.7616726209468818,1.0
3.9518134515026753,-0.7716772119633437,1.0
3.953814369705968,-0.9774899542496645,1.0
3.9558152879092603,-1.2380610956112628,1.0
3.957816206112553,-1.5031827575475252,1.0
3.9598171243158453,-1.561874875668946,0.7884987562251766
3.961818042519138,-1.308008378626171,0.2567597468760131
3.9638189607224303,-1.2441540345242768,0.10000000149011612
3.965819878925723,-1.2595774132575561,0.10671827629254331
3.9678207971290154,-1.2627559551950773,0.638457285641519
3.969821715332308,-1.2649171257309775,1.0
3.9718226335356004,-1.2649171257309775,1.0
3.973823551738893,-1.2649171257309775,1.0
3.9758244699421854,-1.2649171257309775,1.0
3.9778253881454777,-1.260240201807043,1.0
3.9798263063487704,-1.2564504421309437,1.0
3.9818272245520627,-1.2564504421309437,1.0
3.9838281427553555,-1.259200885379504,1.0
3.9858290609586478,-1.264203180887735,1.0
3.9878299791619405,-1.2649171257309775,1.0
3.9898308973652328,-1.2665650508773503,1.0
3.9918318155685255,-1.276569641893813,1.0
3.993832733771818,-1.2062706532633813,1.0
3.9958336519751105,-1.0461971969999566,1.0
3.997834570178403,-1.0070168403239177,1.0
3.9998354883816956,-0.985469750874501,1.0
4.001836406584988,-0.7903802260534953,1.0
4.003837324788281,-0.6742225704592775,1.0
4.005838242991572,-0.6792248659675062,1.0
4.007839161194865,-0.684227161475738,1.0
4.009840079398158,-0.6891358248733801,1.0
4.011840997601451,-0.6841335293651474,1.0
4.0138419158047425,-0.642682594007276,1.0
4.015842834008035,-0.5226275018097235,1.0
4.017843752211328,-0.4619023964870621,1.0
4.019844670414621,-0.4368909189458985,1.0
4.0218455886179125,-0.33731082853145233,1.0
4.023846506821205,-0.2537933266886112,1.0
4.025847425024498,-0.23878644016391704,1.0
4.02784834322779,-0.22924766889763992,1.0
4.029849261431083,-0.22424537338940675,1.0
4.031850179634375,-0.36448988943281524,1.0
4.033851097837668,-0.5029156017279295,1.0
4.03585201604096,-0.5029156017279295,1.0
4.037852934244253,-0.519333992319758,1.0
4.039853852447545,-0.554350060877387,1.0
4.041854770650838,-0.3951965401004238,1.0
4.04385568885413,-0.19769598843182346,1.0
4.045856607057423,-0.19269369292359206,1.0
4.047857525260715,-0.1896483085266767,1.0
4.049858443464007,-0.1896483085266767,1.0
4.0518593616673,-0.1896483085266767,1.0
4.053860279870593,-0.1896178780907345,1.0
4.0558611980738855,-0.18461558258250177,1.0
4.057862116277177,-0.18118162492664247,1.0
4.05986303448047,-0.18118162492664247,1.0
4.061863952683763,-0.18118162492664247,1.0
4.0638648708870555,-0.18118162492664247,1.0
4.065865789090347,-0.18118162492664247,1.0
4.06786670729364,-0.18118162492664247,1.0
4.069867625496933,-0.18118162492664247,1.0
4.0718685437002256,-0.18389929693649787,1.0
4.073869461903517,-0.18890159244472704,1.0
4.07587038010681,-0.2832710559049003,1.0
4.077871298310103,-0.3521796076929764,1.0
4.079872216513395,-0.20211074244610217,1.0
4.0818731347166874,-0.12424393847731352,1.0
4.08387405291998,-0.1292462339855449,1.0
4.085874971123273,-0.12651451715910156,1.0
4.087875889326565,-0.12231745780194014,1.0
4.0898768075298575,-0.12731975331017154,1.0
4.09187772573315,-0.13038152332643937,1.0
4.093878643936443,-0.13038152332643937,1.0
4.095879562139735,-0.1269030904180486,1.0
4.0978804803430275,-0.12190079490981587,1.0
4.09988139854632,-0.11689849940158448,1.0
4.101882316749612,-0.11189620389335486,1.0
4.103883234952905,-0.10689390838512214,1.0
4.105884153156198,-0.1018916128768903,1.0
4.10788507135949,-0.09688931736865891,1.0
4.109885989562782,-0.09188702186042974,1.0
4.111886907766075,-0.08339458942998235,1.0
4.113887825969368,-0.0633854073970519,1.0
4.11588874417266,-0.05418137092613451,1.0
4.117889662375952,-0.05418137092613451,1.0
4.119890580579245,-0.04994217711920523,1.0
4.121891498782538,-0.045714687326100734,1.0
4.1238924169858295,-0.045714687326100734,1.0
4.125893335189122,-0.045714687326100734,1.0
4.127894253392415,-0.045714687326100734,1.0
4.129895171595708,-0.045714687326100734,1.0
4.131896089799,-0.042624827676661425,1.0
4.133897008002292,-0.0026064636107996364,1.0
4.135897926205585,0.023942921346781443,1.0
4.137898844408878,0.02894521685501239,1.0
4.13989976261217,0.03394751236324156,1.0
4.141900680815462,0.03894980787147295,1.0
4.143901599018755,0.03895214867423791,1.0
4.145902517222048,0.03895214867423791,1.0
4.14790343542534,0.03895214867423791,1.0
4.149904353628632,0.03895214867423791,1.0
4.151905271831925,0.03895214867423791,1.0
4.153906190035217,0.04356353012075953,1.0
4.15590710823851,0.069211706013935,1.0
4.1579080264418025,0.164255320670331,1.0
4.159908944645095,0.21097072144606388,1.0
4.161909862848387,0.21597301695429438,1.0
4.16391078105168,0.18719284696191085,1.0
4.1659116992549725,0.1574857190747121,1.0
4.167912617458265,0.1574857190747121,1.0
4.169913535661557,0.1574857190747121,1.0
4.17191445386485,0.1574857190747121,1.0
4.173915372068143,0.1574857190747121,1.0
4.175916290271434,0.1574857190747121,1.0
4.177917208474727,0.1574857190747121,1.0
4.17991812667802,0.1574857190747121,1.0
4.181919044881313,0.1574857190747121,1.0
4.1839199630846045,0.1574857190747121,1.0
4.185920881287897,0.1574857190747121,1.0
4.18792179949119,0.1574857190747121,1.0
4.189922717694483,0.1574857190747121,1.0
4.1919236358977745,0.1574857190747121,1.0
4.193924554101067,0.1574857190747121,1.0
4.19592547230436,0.1574857190747121,1.0
4.197926390507652,0.1574857190747121,1.0
4.1999273087109446,0.15861632681007887,1.0
4.201928226914237,0.16361862231831026,1.0
4.20392914511753,0.2148195863920015,0.7163395083489393
4.205930063320822,0.30642412288644794,0.18460049900008157
4.207930981524115,0.4080189129804852,0.5471385133293616
4.209931899727407,0.500605269934598,1.0
4.2119328179307,0.5306190429839863,1.0
4.213933736133992,0.5492331065691185,1.0
4.215934654337285,0.5542354020773499,1.0
4.217935572540577,0.5477841496577471,1.0
4.219936490743869,0.5388399422937109,1.0
4.221937408947162,0.5438422378019423,1.0
4.223938327150455,0.6509784395409763,1.0
4.225939245353747,0.9261046924937011,1.0
4.227940163557039,1.0229085908291262,1.0
4.229941081760332,1.0379154773538248,1.0
4.231941999963625,1.0380208134782345,1.0
4.2339429181669175,1.0395236088531936,1.0
4.235943836370209,1.0445259043614241,1.0
4.237944754573502,1.0495281998696564,1.0
4.239945672776795,1.0545304953778878,1.0
4.2419465909800875,0.9175958744438013,1.0
4.243947509183379,0.8020678947932982,1.0
4.245948427386672,0.8070701903015309,1.0
4.247949345589965,0.8094203562773199,1.0
4.249950263793257,0.8094203562773199,1.0
4.251951181996549,0.8094203562773199,1.0
4.253952100199842,0.8086947074202526,1.0
4.255953018403135,0.8036924119120199,1.0
4.257953936606427,0.8009536726772861,1.0
4.2599548548097195,0.8009536726772861,1.0
4.261955773013012,0.8009536726772861,1.0
4.263956691216305,0.8009536726772861,1.0
4.265957609419597,0.8009536726772861,1.0
4.2679585276228895,0.8009536726772861,1.0
4.269959445826182,0.8009536726772861,1.0
4.271960364029474,0.8009536726772861,1.0
4.273961282232767,0.8009536726772861,1.0
4.27596220043606,0.8009536726772861,1.0
4.277963118639352,0.8009536726772861,1.0
4.279964036842644,0.8009536726772861,1.0
4.281964955045937,0.8009536726772861,1.0
4.28396587324923,0.8009536726772861,1.0
4.285966791452522,0.8009536726772861,1.0
4.287967709655814,0.8009536726772861,1.0
4.289968627859107,0.8009536726772861,1.0
4.2919695460624,0.8009536726772861,1.0
4.2939704642656915,0.8009536726772861,1.0
4.295971382468984,0.8009536726772861,1.0
4.297972300672277,0.8009536726772861,1.0
4.29997321887557,0.8009536726772861,1.0
4.301974137078862,0.8009536726772861,1.0
4.303975055282154,0.8009536726772861,1.0
4.305975973485447,0.8009536726772861,1.0
4.30797689168874,0.8009536726772861,1.0
4.309977809892032,0.8009536726772861,1.0
4.311978728095324,0.8121052570484686,1.0
4.313979646298617,0.8421190300978645,1.0
4.31598056450191,0.8551502790891168,1.0
4.317981482705202,0.860152574597346,1.0
4.319982400908494,0.8651548701055773,1.0
4.321983319111787,0.8716271897500611,1.0
4.323984237315079,0.8816317807665222,1.0
4.325985155518372,0.9172037899807721,0.6802598844109838
4.327986073721664,0.9697278928172013,0.14852087506189005
4.329986991924957,1.0449811904991968,0.5832181372675627
4.331987910128249,1.1068357331558127,1.0
4.333988828331542,1.1118380286640441,1.0
4.3359897465348345,1.1142209658785394,1.0
4.337990664738127,1.1142209658785394,1.0
4.339991582941419,1.1142209658785394,1.0
4.341992501144712,1.1142209658785394,1.0
4.3439934193480045,1.1142209658785394,1.0
4.345994337551296,1.1142209658785394,1.0
4.347995255754589,1.1142209658785394,1.0
4.349996173957882,1.1142209658785394,1.0
4.351997092161175,1.1142209658785394,1.0
4.353998010364466,1.1142209658785394,1.0
4.355998928567759,1.1142209658785394,1.0
4.357999846771052,1.1142209658785394,1.0
4.360000764974345,1.1142209658785394,1.0
4.3620016831776365,1.1142209658785394,1.0
4.364002601380929,1.1142209658785394,1.0
4.366003519584222,1.1142209658785394,1.0
4.368004437787514,1.1142209658785394,1.0
4.3700053559908065,1.1142209658785394,1.0
4.372006274194099,1.1142209658785394,1.0
4.374007192397392,1.1142209658785394,1.0
4.376008110600684,1.1142209658785394,1.0
4.378009028803977,1.1142209658785394,1.0
4.380009947007269,1.1142209658785394,1.0
4.382010865210562,1.1142209658785394,1.0
4.384011783413854,1.1142209658785394,1.0
4.386012701617147,1.1142209658785394,1.0
4.388013619820439,1.1142209658785394,1.0
4.390014538023732,1.1142209658785394,1.0
4.392015456227024,1.1142209658785394,1.0
4.394016374430317,1.1142209658785394,1.0
4.396017292633609,1.1142209658785394,1.0
4.398018210836901,1.1142209658785394,1.0
4.400019129040194,1.1123951397220475,1.0
4.402020047243487,1.1073928442138161,1.0
4.4040209654467795,0.9779324065075246,1.0
4.406021883650071,0.787845177194817,1.0
4.408022801853364,0.7840203054772181,1.0
4.410023720056657,0.7739595351943898,1.0
4.4120246382599495,0.7389434666367705,1.0
4.414025556463241,0.7039273980791609,1.0
4.416026474666534,0.6689113295215319,1.0
4.418027392869827,0.602303786851079,1.0
4.420028311073119,0.5469531646762698,1.0
4.422029229276411,0.5469531646762698,1.0
4.424030147479704,0.5495397517312992,1.0
4.426031065682997,0.5545420472395324,1.0
4.428031983886289,0.5595443427477615,1.0
4.4300329020895814,0.5645466382559929,1.0
4.432033820292874,0.5695489337642243,1.0
4.434034738496167,0.5459770499233567,1.0
4.436035656699459,0.48594950382459157,1.0
4.4380365749027515,0.47075301227596533,1.0
4.440037493106044,0.47075301227596533,1.0
4.442038411309336,0.47075301227596533,1.0
4.444039329512629,0.47075301227596533,1.0
4.4460402477159215,0.47075301227596533,1.0
4.448041165919214,0.47075301227596533,1.0
4.450042084122506,0.47075301227596533,1.0
4.452043002325799,0.47075301227596533,1.0
4.454043920529092,0.43807306487753594,1.0
4.456044838732384,0.3230202681881842,1.0
4.458045756935676,0.2760192894751863,1.0
4.460046675138969,0.2760192894751863,1.0
4.462047593342262,0.28051597158623753,1.0
4.4640485115455535,0.28448597307522006,1.0
4.466049429748846,0.28448597307522006,1.0
4.468050347952139,0.16368650559843356,1.0
4.470051266155432,-0.0714213832884405,1.0
4.4720521843587235,-0.1175562649784756,1.0
4.474053102562016,-0.12255856048670832,1.0
4.476054020765309,-0.12756085599493971,1.0
4.478054938968602,-0.13038152332643937,1.0
4.480055857171894,-0.13038152332643937,1.0
4.482056775375186,-0.13038152332643937,1.0
4.484057693578479,-0.13012637582508146,1.0
4.486058611781772,-0.12512408031685007,1.0
4.488059529985064,-0.1219148397264056,1.0
4.490060448188356,-0.1219148397264056,1.0
4.492061366391649,-0.1219148397264056,1.0
4.494062284594941,-0.1219148397264056,1.0
4.496063202798234,-0.12678370947704787,1.0
4.498064121001526,-0.1331904866441187,1.0
4.500065039204819,-0.14319507766058148,1.0
4.502065957408111,-0.14731489052650693,1.0
4.504066875611404,-0.14731489052650693,1.0
4.5060677938146965,-0.14731489052650693,1.0
4.508068712017989,-0.14731489052650693,1.0
4.510069630221281,-0.14731489052650693,1.0
4.512070548424574,-0.15242252215915464,1.0
4.5140714666278665,-0.16242711317561742,1.0
4.516072384831158,-0.16424825772657492,1.0
4.518073303034451,-0.16424825772657492,1.0
4.520074221237744,-0.16424825772657492,1.0
4.522075139441037,-0.16424825772657492,1.0
4.524076057644328,-0.16424825772657492,1.0
4.526076975847621,-0.16424825772657492,1.0
4.528077894050914,-0.16424825772657492,1.0
4.530078812254207,-0.16424825772657492,1.0
4.5320797304574985,-0.16424825772657492,1.0
4.534080648660791,-0.16424825772657492,1.0
4.536081566864084,-0.16424825772657492,1.0
4.538082485067376,-0.16424825772657492,1.0
4.5400834032706685,-0.1739532259891523,1.0
4.542084321473961,-0.19783877740049016,1.0
4.544085239677254,-0.2578663234992664,1.0
4.546086157880546,-0.27985582467113534,1.0
4.5480870760838386,-0.27485352916290395,1.0
4.550087994287131,-0.27877905539935943,1.0
4.552088912490424,-0.2827818281270491,1.0
4.554089830693716,-0.2827818281270491,1.0
4.556090748897009,-0.28024439793007927,1.0
4.558091667100301,-0.27524210242184655,1.0
4.560092585303594,-0.302842507820817,1.0
4.562093503506886,-0.33297098020565663,1.0
4.564094421710179,-0.32796868469742524,1.0
4.566095339913471,-0.3251152461272184,1.0
4.568096258116763,-0.3251152461272184,1.0
4.570097176320056,-0.32880201048167157,1.0
4.572098094523349,-0.33380430598990296,1.0
4.574099012726641,-0.33880660149813435,1.0
4.576099930929933,-0.340288329648208,1.0
4.578100849133226,-0.3352860341399757,1.0
4.580101767336519,-0.3302837386317439,1.0
4.5821026855398115,-0.3252814431235125,1.0
4.584103603743103,-0.2156985172946868,0.48592756513095203
4.586104521946396,-0.12161836242623236,0.10000000149011612
4.588105440149689,-0.07808275933114484,0.10000000149011612
4.590106358352981,0.02355427493775375,0.4092894673866776
4.592107276556273,0.1669794664628248,0.9410284767357714
4.594108194759566,0.20512339613977115,1.0
4.596109112962859,0.22620232503617332,1.0
4.598110031166151,0.2312046205444025,1.0
4.600110949369443,0.21099647027646684,1.0
4.602111867572736,0.16597581070238432,1.0
4.604112785776029,0.14530886309257207,1.0
4.606113703979321,0.13149110437236722,1.0
4.6081146221826135,0.12648880886413583,1.0
4.610115540385906,0.12575145599324822,1.0
4.612116458589198,0.1307537515014774,1.0
4.614117376792491,0.10639301712891358,1.0
4.6161182949957835,0.07302487371767175,1.0
4.618119213199076,0.07802716922590314,1.0
4.620120131402368,0.07256607637578272,1.0
4.622121049605661,0.04755459883462576,1.0
4.624121967808954,0.035670343198083376,1.0
4.626122886012246,0.030668047689850653,1.0
4.628123804215538,0.030485465074204132,1.0
4.630124722418831,0.012866242664062444,1.0
4.632125640622124,-0.052163598942945644,1.0
4.634126558825416,-0.07958142172623628,1.0
4.636127477028708,-0.07958142172623628,1.0
4.638128395232001,-0.07958142172623628,1.0
4.640129313435294,-0.08054817326807173,1.0
4.6421302316385855,-0.08555046877630224,1.0
4.644131149841878,-0.08804810532627005,1.0
4.646132068045171,-0.08804810532627005,1.0
4.648132986248464,-0.08804810532627005,1.0
4.650133904451756,-0.08746992704338163,1.0
4.652134822655048,-0.08246763153514891,1.0
4.654135740858341,-0.07958142172623628,1.0
4.656136659061634,-0.07958142172623628,1.0
4.658137577264926,-0.07958142172623628,1.0
4.660138495468218,-0.07939181670229267,1.0
4.662139413671511,-0.07438952119405995,1.0
4.664140331874803,-0.0711147381262025,1.0
4.666141250078096,-0.0711147381262025,1.0
4.668142168281388,-0.09723809698061281,1.0
4.670143086484681,-0.1372564610464635,1.0
4.672144004687973,-0.13884820692647315,1.0
4.674144922891266,-0.13884820692647315,1.0
4.676145841094558,-0.13884820692647315,1.0
4.678146759297851,-0.13884820692647315,1.0
4.680147677501143,-0.13884820692647315,1.0
4.682148595704436,-0.13884820692647315,1.0
4.6841495139077285,-0.13884820692647315,1.0
4.68615043211102,-0.13884820692647315,1.0
4.688151350314313,-0.13884820692647315,1.0
4.690152268517606,-0.13884820692647315,1.0
4.6921531867208985,-0.1348220261711326,1.0
4.69415410492419,-0.12981973066290342,1.0
4.696155023127483,-0.12481743515467203,1.0
4.698155941330776,-0.1219148397264056,1.0
4.700156859534069,-0.1219148397264056,1.0
4.70215777773736,-0.1219148397264056,1.0
4.704158695940653,-0.12174162032181446,1.0
4.706159614143946,-0.11673932481358307,1.0
4.708160532347238,-0.18531548260913677,1.0
4.7101614505505305,-0.39541189395490894,1.0
4.712162368753823,-0.4722979015652431,1.0
4.714163286957116,-0.4773001970734745,1.0
4.716164205160408,-0.42545756044193217,0.49115288997717943
4.7181651233637005,-0.3904206075346419,0.10000000149011612
4.720166041566993,-0.40925737655783045,0.10000000149011612
4.722166959770286,-0.4376588119778897,0.4040641425406863
4.724167877973578,-0.47322200660670655,0.935803151889544
4.726168796176871,-0.47311718253289614,1.0
4.728169714380163,-0.46904886732779394,1.0
4.730170632583456,-0.46904886732779394,1.0
4.732171550786748,-0.46904886732779394,1.0
4.734172468990041,-0.46904886732779394,1.0
4.736173387193333,-0.46904886732779394,1.0
4.738174305396625,-0.46904886732779394,1.0
4.740175223599918,-0.46904886732779394,1.0
4.742176141803211,-0.46904886732779394,1.0
4.744177060006503,-0.46904886732779394,1.0
4.746177978209795,-0.46904886732779394,1.0
4.748178896413088,-0.46904886732779394,1.0
4.750179814616381,-0.46904886732779394,1.0
4.7521807328196735,-0.46904886732779394,1.0
4.754181651022965,-0.46904886732779394,1.0
4.756182569226258,-0.46904886732779394,1.0
4.758183487429551,-0.46904886732779394,1.0
4.760184405632843,-0.46904886732779394,1.0
4.762185323836135,-0.46904886732779394,1.0
4.764186242039428,-0.46904886732779394,1.0
4.766187160242721,-0.46904886732779394,1.0
4.768188078446013,-0.46904886732779394,1.0
4.770188996649305,-0.46904886732779394,1.0
4.772189914852598,-0.46904886732779394,1.0
4.774190833055891,-0.46904886732779394,1.0
4.776191751259183,-0.46904886732779394,1.0
4.7781926694624755,-0.46904886732779394,1.0
4.780193587665768,-0.46904886732779394,1.0
4.78219450586906,-0.46904886732779394,1.0
4.784195424072353,-0.46904886732779394,1.0
4.7861963422756455,-0.46904886732779394,1.0
4.788197260478938,-0.46904886732779394,1.0
4.79019817868223,-0.46904886732779394,1.0
4.792199096885523,-0.46904886732779394,1.0
4.7942000150888155,-0.46904886732779394,1.0
4.796200933292108,-0.46401380058084873,1.0
4.7982018514954,-0.44900691405616167,1.0
4.800202769698693,-0.4436488165276926,1.0
4.802203687901986,-0.4436488165276926,1.0
4.804204606105278,-0.4388946461125207,1.0
4.80620552430857,-0.45452886777817936,1.0
4.808206442511863,-0.5295633004016502,1.0
4.810207360715156,-0.5593546971883696,1.0
4.8122082789184475,-0.5543524016801404,1.0
4.81420919712174,-0.5537157033281326,1.0
4.816210115325033,-0.5537157033281326,1.0
4.818211033528326,-0.5537157033281326,1.0
4.8202119517316175,-0.5561548198089832,1.0
4.82221286993491,-0.5611571153172163,1.0
4.824213788138203,-0.5621823869281668,1.0
4.826214706341496,-0.5355253250432845,1.0
4.828215624544788,-0.275405958615369,1.0
4.83021654274808,-0.12396538294831139,1.0
4.832217460951373,-0.12896767845654367,1.0
4.834218379154665,-0.13038152332643937,1.0
4.836219297357958,-0.13025746077990785,1.0
4.83822021556125,-0.12525516527167646,1.0
4.840221133764543,-0.15183029905970002,1.0
4.842222051967835,-0.24187161820784864,1.0
4.844222970171128,-0.1783188231453381,1.0
4.84622388837442,-0.028249957898396794,1.0
4.848224806577713,-0.015576851730180863,1.0
4.850225724781005,-0.011847952925965188,1.0
4.852226642984298,-0.011847952925965188,1.0
4.8542275611875905,-0.009036648805520908,1.0
4.856228479390882,-0.004034353297291737,1.0
4.858229397594175,-0.003381269325931413,1.0
4.860230315797468,-0.003381269325931413,1.0
4.8622312340007605,-0.003381269325931413,1.0
4.864232152204052,-0.0009585384644341666,1.0
4.866233070407345,0.004043757043797225,1.0
4.868233988610638,0.005085414274102362,1.0
4.870234906813931,0.004589164087976272,1.0
4.872235825017222,-0.00041313142025289906,1.0
4.874236743220515,-0.003381269325931413,1.0
4.876237661423808,-0.003381269325931413,1.0
4.878238579627101,-0.006953334344913742,1.0
4.8802394978303925,-0.011847952925965188,1.0
4.882240416033685,-0.011847952925965188,1.0
4.884241334236978,-0.013493537269573253,1.0
4.88624225244027,-0.01849583277780198,1.0
4.8882431706435625,-0.01713114476596367,1.0
4.890244088846855,-0.012128849257730945,1.0
4.892245007050148,-0.0071265537494995534,1.0
4.89424592525344,-0.017208391257201416,1.0
4.896246843456733,-0.07223364184774628,1.0
4.898247761660025,-0.09651478892630383,1.0
4.900248679863318,-0.09651478892630383,1.0
4.90224959806661,-0.09651478892630383,1.0
4.904250516269903,-0.09564635110058761,1.0
4.906251434473195,-0.09064405559235489,1.0
4.908252352676487,-0.08804810532627005,1.0
4.91025327087978,-0.08804810532627005,1.0
4.912254189083073,-0.08410385266769627,1.0
4.914255107286365,-0.07958142172623628,1.0
4.916256025489657,-0.07958142172623628,1.0
4.91825694369295,-0.07756364974303587,1.0
4.920257861896243,-0.07256135423480492,1.0
4.922258780099535,-0.06755905872657308,1.0
4.924259698302827,-0.06255676321834391,1.0
4.92626061650612,-0.05755446771011119,1.0
4.928261534709413,-0.05255217220187891,1.0
4.930262452912705,-0.047549876693650184,1.0
4.932263371115997,-0.04254758118541879,1.0
4.93426428931929,-0.0375452856771874,1.0
4.936265207522583,-0.03254299016895468,1.0
4.938266125725875,-0.026300069195416054,1.0
4.940267043929167,-0.01629547817895327,1.0
4.94226796213246,-0.00906942004422806,1.0
4.944268880335753,-0.004067124535996669,1.0
4.946269798539045,0.005251611270398637,1.0
4.948270716742337,0.01525620228686364,1.0
4.95027163494563,0.025260793303326423,1.0
4.952272553148922,0.0352653843197861,1.0
4.954273471352215,0.0452699753362511,1.0
4.9562743895555075,0.05527456635271477,1.0
4.9582753077588,0.06574263631659649,1.0
4.960276225962092,0.08074952284128356,1.0
4.962277144165385,0.09575640936597907,1.0
4.9642780623686775,0.11076329589067724,1.0
4.96627898057197,-0.01934086257596901,1.0
4.968279898775262,-0.21055167721575474,1.0
4.970280816978555,-0.47567333915201715,1.0
4.972281735181848,-0.7424078141932031,1.0
4.97428265338514,-1.0125317716377675,1.0
4.976283571588432,-1.2763542880395082,1.0
4.978284489791725,-1.5364736544675393,1.0
4.980285407995018,-1.3215764029514137,0.5016035396693981
4.9822863261983095,-1.1723808034359422,0.23013547265972603
4.984287244401602,-1.3240128860292453,0.7618744820089592
4.986288162604895,-1.3781066434195615,1.0
4.988289080808188,-1.3530951658784045,1.0
4.9902899990114795,-1.3452839070525047,1.0
4.992290917214772,-1.3411172781312823,1.0
4.994291835418065,-1.3411172781312823,1.0
4.996292753621358,-1.3434908521347224,1.0
4.99829367182465,-1.3484931476429516,1.0
5.000294590027942,-1.3495839617313161,1.0
5.002295508231235,-1.3495839617313161,1.0
5.004296426434527,-1.3495839617313161,1.0
5.00629734463782,-1.347598960986823,1.0
5.008298262841112,-1.3425966654785917,1.0
5.010299181044405,-1.3552089107749739,1.0
5.012300099247697,-1.3750425326005373,1.0
5.01430101745099,-1.3800448281087687,1.0
5.016301935654282,-1.3483292914493892,1.0
5.018302853857575,-1.2382787902682992,1.0
5.020303772060867,-1.2003179918326823,1.0
5.02230469026416,-1.205320287340915,1.0
5.0243056084674524,-1.2103225828491464,1.0
5.026306526670744,-1.212909169904173,1.0
5.028307444874037,-1.2079068743959416,1.0
5.03030836307733,-1.2029045788877095,1.0
5.0323092812806225,-1.197902283379477,1.0
5.034310199483914,-1.2014673259901656,1.0
5.036311117687207,-1.2007346547248012,1.0
5.0383120358905,-1.170720881675413,1.0
5.0403129540937925,-1.1548502389305373,1.0
5.042313872297084,-1.1548502389305373,1.0
5.044314790500377,-1.1548502389305373,1.0
5.04631570870367,-1.1544195312218255,1.0
5.048316626906963,-1.1494172357135928,1.0
5.050317545110254,-1.1463835553305035,1.0
5.052318463313547,-1.1463835553305035,1.0
5.05431938151684,-1.1463835553305035,1.0
5.056320299720132,-1.1467627653783863,1.0
5.0583212179234245,-1.1917834249524804,1.0
5.060322136126717,-1.2225837077308082,1.0
5.06232305433001,-1.2225837077308082,1.0
5.064323972533302,-1.2225837077308082,1.0
5.0663248907365945,-1.2225837077308082,1.0
5.068325808939887,-1.2225837077308082,1.0
5.07032672714318,-1.2225837077308082,1.0
5.072327645346472,-1.2225837077308082,1.0
5.074328563549765,-1.2225837077308082,1.0
5.076329481753057,-1.2225837077308082,1.0
5.078330399956349,-1.2268509911709138,1.0
5.080331318159642,-1.2310503913308422,1.0
5.082332236362935,-1.2310503913308422,1.0
5.084333154566227,-1.2287095885661086,1.0
5.086334072769519,-1.223707293057878,1.0
5.088334990972812,-1.2225837077308082,1.0
5.090335909176105,-1.2221693856414488,1.0
5.092336827379397,-1.2171670901332177,1.0
5.094337745582689,-1.2160692536365607,1.0
5.096338663785982,-1.2210715491447934,1.0
5.098339581989275,-1.2260738446530253,1.0
5.100340500192567,-1.2308186518571316,0.9972629250805364
5.102341418395859,-1.1857979922830493,0.4655239157314426
5.104342336599152,-1.1376500202152802,0.26621509659792697
5.106343254802445,-1.0826247696247209,0.7979541059471602
5.108344173005737,-1.0648182829934347,1.0
5.110345091209029,-1.0698205785016661,1.0
5.112346009412322,-1.0701834029301986,1.0
5.114346927615615,-1.0701834029301986,1.0
5.116347845818907,-1.0701834029301986,1.0
5.118348764022199,-1.0674704125258736,1.0
5.120349682225492,-1.0624681170176422,1.0
5.122350600428785,-1.0617167193301649,1.0
5.124351518632077,-1.0625032290591143,1.0
5.1263524368353695,-1.067505524567347,1.0
5.128353355038662,-1.0701834029301986,1.0
5.130354273241954,-1.0701834029301986,1.0
5.132355191445247,-0.9041034467724498,1.0
5.1343561096485395,-0.7065139445987492,1.0
5.136357027851832,-0.7115162401069806,1.0
5.138357946055124,-0.7126468478423424,1.0
5.140358864258417,-0.7076445523341115,1.0
5.1423597824617095,-0.7061160081287423,1.0
5.144360700665002,-0.7061160081287423,1.0
5.146361618868294,-0.7061160081287423,1.0
5.148362537071587,-0.7061160081287423,1.0
5.15036345527488,-0.7061160081287423,1.0
5.1523643734781714,-0.7030308300848263,1.0
5.154365291681464,-0.6980285345765935,1.0
5.156366209884757,-0.6930262390683621,1.0
5.15836712808805,-0.6567391146094455,1.0
5.1603680462913415,-0.5166748403790291,1.0
5.162368964494634,-0.4521155001277264,1.0
5.164369882697927,-0.4521155001277264,1.0
5.16637080090122,-0.4521155001277264,1.0
5.1683717191045115,-0.4521155001277264,1.0
5.170372637307804,-0.4521155001277264,1.0
5.172373555511097,-0.4521155001277264,1.0
5.174374473714389,-0.4521155001277264,1.0
5.176375391917682,-0.4521155001277264,1.0
5.178376310120974,-0.4521155001277264,1.0
5.180377228324267,-0.4521155001277264,1.0
5.182378146527559,-0.4521155001277264,1.0
5.184379064730852,-0.4521155001277264,1.0
5.186379982934144,-0.4521155001277264,1.0
5.188380901137437,-0.4521155001277264,1.0
5.190381819340729,-0.45711077322766425,1.0
5.192382737544022,-0.411593863467401,1.0
5.194383655747314,-0.2515204072039978,1.0
5.196384573950606,-0.1896483085266767,1.0
5.198385492153899,-0.1896483085266767,1.0
5.200386410357192,-0.1896483085266767,1.0
5.2023873285604845,-0.1896483085266767,1.0
5.204388246763776,-0.1896483085266767,1.0
5.206389164967069,-0.1896483085266767,1.0
5.208390083170362,-0.1896483085266767,1.0
5.2103910013736545,-0.1896483085266767,1.0
5.212391919576946,-0.1896483085266767,1.0
5.214392837780239,-0.1896483085266767,1.0
5.216393755983532,-0.19193995443334977,1.0
5.218394674186825,-0.19694224994158116,1.0
5.220395592390116,-0.20194454544981122,1.0
5.222396510593409,-0.20073903202594945,1.0
5.224397428796702,-0.12070230389424763,1.0
5.226398346999994,-0.07301781077392944,1.0
5.2283992652032865,-0.07802010628216172,1.0
5.230400183406579,-0.06581750146960674,1.0
5.232401101609872,-0.04580831943668118,1.0
5.234402019813164,-0.06189607163799904,0.47074924057767
5.2364029380164565,-0.0702497383545464,0.10000000149011612
5.238403856219749,-0.060401469072713265,0.10000000149011612
5.240404774423042,-0.05819614026799602,0.10000000149011612
5.242405692626334,-0.06087314997357218,0.10000000149011612
5.244406610829627,-0.06385722659729565,0.10000000149011612
5.246407529032919,-0.06346799384459922,0.2196848229675046
5.248408447236211,-0.051370157100329106,0.7514238323165018
5.250409365439504,-0.06169768860369462,1.0
5.252410283642797,-0.09171146165308253,1.0
5.254411201846089,-0.10071652988899826,1.0
5.256412120049381,-0.10571882539722743,1.0
5.258413038252674,-0.1107211209054606,1.0
5.260413956455967,-0.11344815612637182,1.0
5.262414874659259,-0.11344815612637182,1.0
5.264415792862551,-0.11344815612637182,1.0
5.266416711065844,-0.11344815612637182,1.0
5.268417629269137,-0.11344815612637182,1.0
5.2704185474724285,-0.1115614690979978,1.0
5.272419465675721,-0.10655917358976641,1.0
5.274420383879014,-0.04676336696467631,1.0
5.276421302082307,0.0382756566752791,1.0
5.278422220285599,0.03895214867423791,1.0
5.280423138488891,0.04045026244366712,1.0
5.282424056692184,0.045452557951898065,1.0
5.284424974895477,0.04741883227427168,1.0
5.286425893098769,0.04741883227427168,1.0
5.288426811302061,0.0428449036719849,1.0
5.290427729505354,0.040061689184722304,1.0
5.292428647708647,0.045063984692953696,1.0
5.294429565911939,0.04741883227427168,1.0
5.296430484115231,0.04741883227427168,1.0
5.298431402318524,0.05160418761761365,1.0
5.300432320521816,0.05588551587430546,1.0
5.302433238725109,0.05588551587430546,1.0
5.3044341569284015,0.05588551587430546,1.0
5.306435075131694,0.05588551587430546,1.0
5.308435993334986,0.0672758621274907,1.0
5.310436911538279,0.08128556667440723,1.0
5.3124378297415715,0.08128556667440723,1.0
5.314438747944864,0.08128556667440723,1.0
5.316439666148156,0.08128556667440723,1.0
5.318440584351449,0.17671541378701416,1.0
5.320441502554742,0.31677968801749223,1.0
5.322442420758033,0.3183527074753556,1.0
5.324443338961326,0.31983443562543235,1.0
5.326444257164619,0.3248367311336633,1.0
5.328445175367912,0.3268193910753894,1.0
5.3304460935712035,0.3268193910753894,1.0
5.332447011774496,0.3268193910753894,1.0
5.334447929977789,0.3268193910753894,1.0
5.336448848181082,0.3268193910753894,1.0
5.3384497663843735,0.3268193910753894,1.0
5.340450684587666,0.3268193910753894,1.0
5.342451602790959,0.3268193910753894,1.0
5.344452520994251,0.32047815638572574,1.0
5.346453439197544,0.27545749681164367,1.0
5.348454357400836,0.32686386632795017,1.0
5.350455275604129,0.4969419136078166,1.0
5.352456193807421,0.5347060846111948,1.0
5.354457112010714,0.5300197974762022,1.0
5.356458030214006,0.5300197974762022,1.0
5.358458948417299,0.5300197974762022,1.0
5.360459866620591,0.5300197974762022,1.0
5.362460784823884,0.5300197974762022,1.0
5.364461703027176,0.5300197974762022,1.0
5.366462621230468,0.5349495280987266,1.0
5.368463539433761,0.5472785362605697,1.0
5.370464457637054,0.577292309309966,1.0
5.3724653758403464,0.6974035807739472,1.0
5.374466294043638,0.8774862190701969,1.0
5.376467212246931,0.8940871922776585,1.0
5.378468130450224,0.8930104230058813,1.0
5.3804690486535165,0.8880081274976481,1.0
5.382469966856808,0.888235185365831,1.0
5.384470885060101,0.8932374808740624,1.0
5.386471803263394,0.8940871922776585,1.0
5.3884727214666865,0.8940871922776585,1.0
5.390473639669978,0.8940871922776585,1.0
5.392474557873271,0.8963132957069195,1.0
5.394475476076564,0.9013155912151509,1.0
5.396476394279856,0.9025538758776923,1.0
5.398477312483148,0.9022542531238065,1.0
5.400478230686441,0.8972519576155742,1.0
5.402479148889734,0.8922496621073419,1.0
5.404480067093026,0.8872473665991132,1.0
5.4064809852963185,0.8822450710908809,1.0
5.408481903499611,0.8772427755826486,1.0
5.410482821702904,0.8722404800744168,1.0
5.412483739906196,0.8744829691230347,1.0
5.4144846581094885,0.8944921511559603,1.0
5.416485576312781,0.8995670115498928,1.0
5.418486494516073,0.8945647160416632,1.0
5.420487412719366,0.8986119640218853,1.0
5.422488330922659,0.9046746431825419,1.0
5.424489249125951,0.9146792341990047,1.0
5.426490167329243,0.9194872430777599,1.0
5.428491085532536,0.9194872430777599,1.0
5.430492003735829,0.9194872430777599,1.0
5.432492921939121,0.9201590534712398,1.0
5.434493840142413,0.9251613489794686,1.0
5.436494758345706,0.9279539266777936,1.0
5.438495676548999,0.9279539266777936,1.0
5.4404965947522905,0.9279539266777936,1.0
5.442497512955583,0.9276706895432607,1.0
5.444498431158876,0.9226683940350284,1.0
5.446499349362169,0.9158449539758315,1.0
5.448500267565461,0.9058403629593741,1.0
5.450501185768753,0.9025538758776923,1.0
5.452502103972046,0.9025538758776923,1.0
5.454503022175339,0.8976569164938715,1.0
5.456503940378631,0.8926546209856419,1.0
5.458504858581923,0.8876523254774105,1.0
5.460505776785216,0.8856205086776248,1.0
