Sample_Index,Normalized_Voltage
0,2.949339790633067
1,2.949339790633067
2,2.949339790633067
3,2.949339790633067
4,2.949339790633067
5,2.949339790633067
6,2.949339790633067
7,2.949339790633067
8,2.949339790633067
9,2.949339790633067
10,2.949339790633067
11,2.949339790633067
12,2.949339790633067
13,2.949339790633067
14,2.949339790633067
15,2.949339790633067
16,2.949339790633067
17,2.949339790633067
18,2.949339790633067
19,2.949339790633067
20,2.949339790633067
21,2.9636409504037364
22,2.9780575002683682
23,2.9924740501329996
24,3.0068905999976314
25,3.0213071498622632
26,3.0214513874797184
27,3.0214513874797184
28,3.0214513874797184
29,3.0214513874797184
30,3.0214513874797184
31,3.0214513874797184
32,3.0214513874797184
33,3.0214513874797184
34,3.0214513874797184
35,3.0214513874797184
36,3.0214513874797184
37,3.0214513874797184
38,3.0214513874797184
39,3.0214513874797184
40,3.0214513874797184
41,3.0072656178030144
42,2.9928490679383826
43,2.9784325180737508
44,2.964015968209119
45,2.9495994183444854
46,2.949339790633067
47,2.949339790633067
48,2.949339790633067
49,2.949339790633067
50,2.949339790633067
51,2.949339790633067
52,2.949339790633067
53,2.949339790633067
54,2.949339790633067
55,2.949339790633067
56,2.949339790633067
57,2.949339790633067
58,2.949339790633067
59,2.949339790633067
60,2.949339790633067
61,2.949339790633067
62,2.949339790633067
63,2.949339790633067
64,2.949339790633067
65,2.949339790633067
66,2.949339790633067
67,2.949339790633067
68,2.949339790633067
69,2.949339790633067
70,2.949339790633067
71,2.949339790633067
72,2.949339790633067
73,2.949339790633067
74,2.949339790633067
75,2.949339790633067
76,2.949339790633067
77,2.949339790633067
78,2.949339790633067
79,2.949339790633067
80,2.949339790633067
81,2.949339790633067
82,2.949339790633067
83,2.949339790633067
84,2.949339790633067
85,2.949339790633067
86,2.949339790633067
87,2.949339790633067
88,2.949339790633067
89,2.949339790633067
90,2.949339790633067
91,2.949339790633067
92,2.949339790633067
93,2.949339790633067
94,2.949339790633067
95,2.949339790633067
96,2.9632082375513704
97,2.977624787416002
98,2.9920413372806336
99,3.006457887145267
100,3.020874437009899
101,3.0214513874797184
102,3.0214513874797184
103,3.0214513874797184
104,3.0214513874797184
105,3.0214513874797184
106,3.0214513874797184
107,3.0214513874797184
108,3.0214513874797184
109,3.0214513874797184
110,3.0214513874797184
111,3.0076694831318878
112,2.993252933267256
113,2.978836383402624
114,2.9644198335379923
115,2.950003283673361
116,2.949339790633067
117,2.949339790633067
118,2.949339790633067
119,2.949339790633067
120,2.949339790633067
121,2.949339790633067
122,2.949339790633067
123,2.949339790633067
124,2.949339790633067
125,2.949339790633067
126,2.949339790633067
127,2.949339790633067
128,2.949339790633067
129,2.949339790633067
130,2.949339790633067
131,2.949339790633067
132,2.949339790633067
133,2.949339790633067
134,2.949339790633067
135,2.949339790633067
136,2.949339790633067
137,2.949339790633067
138,2.949339790633067
139,2.949339790633067
140,2.949339790633067
141,2.949339790633067
142,2.949339790633067
143,2.949339790633067
144,2.949339790633067
145,2.949339790633067
146,2.949339790633067
147,2.949339790633067
148,2.949339790633067
149,2.949339790633067
150,2.949339790633067
151,2.949339790633067
152,2.949339790633067
153,2.949339790633067
154,2.949339790633067
155,2.949339790633067
156,2.949339790633067
157,2.949339790633067
158,2.949339790633067
159,2.949339790633067
160,2.949339790633067
161,2.9628332197459875
162,2.9772497696106193
163,2.991666319475251
164,3.0060828693398847
165,3.0204994192045165
166,3.007986805890289
167,2.993570256025657
168,2.979153706161026
169,2.964737156296394
170,2.9503206064317604
171,2.949339790633067
172,2.949339790633067
173,2.949339790633067
174,2.949339790633067
175,2.949339790633067
176,2.949339790633067
177,2.949339790633067
178,2.949339790633067
179,2.949339790633067
180,2.949339790633067
181,2.949339790633067
182,2.949339790633067
183,2.949339790633067
184,2.949339790633067
185,2.949339790633067
186,2.949339790633067
187,2.949339790633067
188,2.949339790633067
189,2.949339790633067
190,2.949339790633067
191,2.949339790633067
192,2.949339790633067
193,2.949339790633067
194,2.949339790633067
195,2.949339790633067
196,2.949339790633067
197,2.949339790633067
198,2.949339790633067
199,2.949339790633067
200,2.949339790633067
201,2.96260243955806
202,2.977018989422692
203,2.9914355392873233
204,3.005852089151955
205,3.020268639016587
206,3.0214513874797184
207,3.0214513874797184
208,3.0214513874797184
209,3.0214513874797184
210,3.0214513874797184
211,3.0214513874797184
212,3.0214513874797184
213,3.0214513874797184
214,3.0214513874797184
215,3.0214513874797184
216,3.0082752811252
217,2.993858731260568
218,2.979442181395936
219,2.9650256315313026
220,2.950609081666671
221,2.949339790633067
222,2.949339790633067
223,2.949339790633067
224,2.949339790633067
225,2.949339790633067
226,2.949339790633067
227,2.949339790633067
228,2.949339790633067
229,2.949339790633067
230,2.949339790633067
231,2.949339790633067
232,2.949339790633067
233,2.949339790633067
234,2.949339790633067
235,2.949339790633067
236,2.962400506893623
237,2.976817056758255
238,2.991233606622887
239,3.0056501564875187
240,3.02006670635215
241,3.034483256216782
242,3.0488998060814136
243,3.0633163559460472
244,3.077732905810679
245,3.092149455675311
246,3.1065660055399427
247,3.120982555404574
248,3.135399105269206
249,3.1498156551338394
250,3.1642322049984712
251,3.178648754863103
252,3.193065304727735
253,3.2074818545923662
254,3.221898404456998
255,3.2363149543216316
256,3.2507315041862634
257,3.2651480540508953
258,3.279564603915527
259,3.2939811537801584
260,3.3083977036447925
261,3.3228142535094243
262,3.3372308033740556
263,3.3516473532386875
264,3.3660639031033193
265,3.380480452967951
266,3.3948970028325824
267,3.4093135526972165
268,3.423730102561848
269,3.4381466524264797
270,3.4525632022911115
271,3.4669797521557433
272,3.4813963020203746
273,3.4958128518850087
274,3.51022940174964
275,3.524645951614272
276,3.5390625014789037
277,3.5534790513435355
278,3.567895601208169
279,3.582312151072801
280,3.5967287009374327
281,3.611145250802064
282,3.625561800666696
283,3.6399783505313277
284,3.6543949003959613
285,3.668811450260593
286,3.683228000125225
287,3.6976445499898563
288,3.712061099854488
289,3.72647764971912
290,3.7408941995837517
291,3.7425673559462305
292,3.7425673559462305
293,3.7425673559462305
294,3.7425673559462305
295,3.7425673559462305
296,3.7552819019248944
297,3.7696984517895262
298,3.784115001654158
299,3.79853155151879
300,3.812948101383421
301,3.827364651248053
302,3.841781201112685
303,3.8561977509773184
304,3.8706143008419502
305,3.885030850706582
306,3.8994474005712134
307,3.9138639504358452
308,3.9282805003004793
309,3.942697050165109
310,3.9571136000297424
311,3.9715301498943743
312,3.985946699759006
313,4.000363249623637
314,4.014779799488269
315,4.029196349352901
316,4.043612899217535
317,4.0580294490821665
318,4.072445998946798
319,4.08686254881143
320,4.101279098676062
321,4.1156956485406955
322,4.130112198405327
323,4.144528748269958
324,4.15894529813459
325,4.173361847999222
326,4.2003198587015715
327,4.229152958430837
328,4.257986058160101
329,4.286819157889366
330,4.31565225761863
331,4.331972744033668
332,4.346389293898297
333,4.360805843762931
334,4.3752223936275625
335,4.389638943492194
336,4.404055493356826
337,4.418472043221458
338,4.4328885930860915
339,4.447305142950723
340,4.461721692815355
341,4.476138242679987
342,4.490554792544618
343,4.50497134240925
344,4.5193878922738815
345,4.533804442138515
346,4.535794921259394
347,4.535794921259394
348,4.535794921259394
349,4.535794921259394
350,4.535794921259394
351,4.560589367699917
352,4.589422467429181
353,4.618255567158443
354,4.64708866688771
355,4.675921766616972
356,4.704754866346238
357,4.733587966075501
358,4.762421065804765
359,4.79125416553403
360,4.820087265263294
361,4.8365808368192775
362,4.850997386683912
363,4.865413936548543
364,4.879830486413175
365,4.8942470362778066
366,4.89635290549265
367,4.89635290549265
368,4.89635290549265
369,4.89635290549265
370,4.89635290549265
371,4.89635290549265
372,4.89635290549265
373,4.89635290549265
374,4.89635290549265
375,4.89635290549265
376,4.89635290549265
377,4.89635290549265
378,4.89635290549265
379,4.89635290549265
380,4.89635290549265
381,4.89635290549265
382,4.89635290549265
383,4.89635290549265
384,4.89635290549265
385,4.89635290549265
386,4.89635290549265
387,4.89635290549265
388,4.89635290549265
389,4.89635290549265
390,4.89635290549265
391,4.89635290549265
392,4.89635290549265
393,4.89635290549265
394,4.89635290549265
395,4.89635290549265
396,4.89635290549265
397,4.89635290549265
398,4.89635290549265
399,4.89635290549265
400,4.89635290549265
401,4.89635290549265
402,4.89635290549265
403,4.89635290549265
404,4.89635290549265
405,4.89635290549265
406,4.89635290549265
407,4.89635290549265
408,4.89635290549265
409,4.89635290549265
410,4.89635290549265
411,4.89635290549265
412,4.89635290549265
413,4.89635290549265
414,4.89635290549265
415,4.89635290549265
416,4.89635290549265
417,4.89635290549265
418,4.89635290549265
419,4.89635290549265
420,4.89635290549265
421,4.89635290549265
422,4.89635290549265
423,4.89635290549265
424,4.89635290549265
425,4.89635290549265
426,4.89635290549265
427,4.89635290549265
428,4.89635290549265
429,4.89635290549265
430,4.89635290549265
431,4.89635290549265
432,4.89635290549265
433,4.89635290549265
434,4.89635290549265
435,4.89635290549265
436,4.89635290549265
437,4.89635290549265
438,4.89635290549265
439,4.89635290549265
440,4.89635290549265
441,4.89635290549265
442,4.89635290549265
443,4.89635290549265
444,4.89635290549265
445,4.89635290549265
446,4.89635290549265
447,4.89635290549265
448,4.89635290549265
449,4.89635290549265
450,4.89635290549265
451,4.89635290549265
452,4.89635290549265
453,4.89635290549265
454,4.89635290549265
455,4.89635290549265
456,4.89635290549265
457,4.89635290549265
458,4.89635290549265
459,4.89635290549265
460,4.89635290549265
461,4.89635290549265
462,4.89635290549265
463,4.89635290549265
464,4.89635290549265
465,4.89635290549265
466,4.89635290549265
467,4.89635290549265
468,4.89635290549265
469,4.89635290549265
470,4.89635290549265
471,4.89635290549265
472,4.89635290549265
473,4.89635290549265
474,4.89635290549265
475,4.89635290549265
476,4.89635290549265
477,4.89635290549265
478,4.89635290549265
479,4.89635290549265
480,4.89635290549265
481,4.89635290549265
482,4.89635290549265
483,4.89635290549265
484,4.89635290549265
485,4.89635290549265
486,4.89635290549265
487,4.89635290549265
488,4.89635290549265
489,4.89635290549265
490,4.89635290549265
491,4.89635290549265
492,4.89635290549265
493,4.89635290549265
494,4.89635290549265
495,4.89635290549265
496,4.89635290549265
497,4.89635290549265
498,4.89635290549265
499,4.89635290549265
500,4.89635290549265
501,4.89635290549265
502,4.89635290549265
503,4.89635290549265
504,4.89635290549265
505,4.89635290549265
506,4.89635290549265
507,4.89635290549265
508,4.89635290549265
509,4.89635290549265
510,4.89635290549265
511,4.89635290549265
512,4.89635290549265
513,4.89635290549265
514,4.89635290549265
515,4.89635290549265
516,4.89635290549265
517,4.89635290549265
518,4.89635290549265
519,4.89635290549265
520,4.89635290549265
521,4.782188831276963
522,4.638023332630652
523,4.493857833984332
524,4.34969233533801
525,4.205526836691689
526,4.061361338045368
527,3.917195839399049
528,3.77303034075273
529,3.628864842106411
530,3.484699343460092
531,3.3405338448137707
532,3.1963683461674495
533,3.0522028475211287
534,2.9080373488748075
535,2.7638718502284862
536,2.6197063515821655
537,2.4755408529358442
538,2.331375354289523
539,2.1872098556432022
540,2.043044356996881
541,1.8988788583505702
542,1.7547133597042492
543,1.610547861057928
544,1.466382362411606
545,1.322216863765285
546,1.1780513651189637
547,1.0338858664726427
548,0.8897203678263217
549,0.7455548691800006
550,0.6013893705336795
551,0.4572238718873584
552,0.3130583732410373
553,0.16889287459471625
554,0.024727375948395157
555,-0.11943812269792592
556,-0.16267334853006543
557,-0.17708989839469816
558,-0.19150644825932986
559,-0.2059229981239626
560,-0.22033954798859326
561,-0.2235704706195857
562,-0.2235704706195857
563,-0.2235704706195857
564,-0.2235704706195857
565,-0.2235704706195857
566,-0.21241369090943713
567,-0.1979971410448044
568,-0.1835805911801727
569,-0.16916404131553997
570,-0.15474749145090827
571,-0.1514588737729345
572,-0.1514588737729345
573,-0.1514588737729345
574,-0.1514588737729345
575,-0.1514588737729345
576,-0.14035978910976724
577,-0.12594323924513554
578,-0.11152668938050384
579,-0.09711013951587215
580,-0.08269358965124045
581,-0.0793472769262833
582,-0.0793472769262833
583,-0.0793472769262833
584,-0.0793472769262833
585,-0.0793472769262833
586,-0.06830588731009839
587,-0.05388933744546669
588,-0.03947278758083499
589,-0.02505623771620227
590,-0.010639687851570571
591,-0.0072356800796320835
592,-0.0072356800796320835
593,-0.0072356800796320835
594,-0.0072356800796320835
595,-0.0072356800796320835
596,-0.0072356800796320835
597,-0.0072356800796320835
598,-0.0072356800796320835
599,-0.0072356800796320835
600,-0.0072356800796320835
601,0.0037191669660797968
602,0.018135716830711496
603,0.032552266695344216
604,0.046968816559975916
605,0.06138536642460762
606,0.06487591676701912
607,0.06487591676701912
608,0.06487591676701912
609,0.06487591676701912
610,0.06487591676701912
611,0.07577306876574967
612,0.09018961863038137
613,0.1046061684950141
614,0.11902271835964578
615,0.13343926822427749
616,0.13698751361367031
617,0.13698751361367031
618,0.13698751361367031
619,0.13698751361367031
620,0.13698751361367031
621,0.13698751361367031
622,0.13698751361367031
623,0.13698751361367031
624,0.13698751361367031
625,0.13698751361367031
626,0.13698751361367031
627,0.13698751361367031
628,0.13698751361367031
629,0.13698751361367031
630,0.13698751361367031
631,0.14776927551843513
632,0.16218582538306786
633,0.17660237524769956
634,0.1910189251123323
635,0.20543547497696502
636,0.20909911046032154
637,0.20909911046032154
638,0.20909911046032154
639,0.20909911046032154
640,0.20909911046032154
641,0.20909911046032154
642,0.20909911046032154
643,0.20909911046032154
644,0.20909911046032154
645,0.20909911046032154
646,0.21979432979461333
647,0.23421087965924606
648,0.24862742952387876
649,0.2630439793885105
650,0.2774605292531432
651,0.28121070730697273
652,0.28121070730697273
653,0.28121070730697273
654,0.28121070730697273
655,0.28121070730697273
656,0.2918482315942832
657,0.30626478145891595
658,0.32068133132354865
659,0.33509788118818035
660,0.34951443105281305
661,0.36393098091744475
662,0.37834753078207645
663,0.3927640806467092
664,0.40718063051133885
665,0.42159718037597055
666,0.42543390100027517
667,0.42543390100027517
668,0.42543390100027517
669,0.42543390100027517
670,0.42543390100027517
671,0.42543390100027517
672,0.42543390100027517
673,0.42543390100027517
674,0.42543390100027517
675,0.42543390100027517
676,0.4149117668069284
677,0.4004952169422967
678,0.386078667077664
679,0.3716621172130323
680,0.3572455673483995
681,0.3533223041536239
682,0.3533223041536239
683,0.3533223041536239
684,0.3533223041536239
685,0.3533223041536239
686,0.3428578650072595
687,0.3284413151426268
688,0.3140247652779951
689,0.2996082154133634
690,0.2851916655487317
691,0.270775115684099
692,0.2563585658194673
693,0.24194201595483456
694,0.22752546609020183
695,0.21310891622557016
696,0.19869236636093845
697,0.18427581649630573
698,0.16985926663167403
699,0.15544271676704233
700,0.14102616690241063
701,0.1266096170377779
702,0.11219306717314825
703,0.09777651730851553
704,0.08335996744388281
705,0.06894341757925111
706,0.06487591676701912
707,0.06487591676701912
708,0.06487591676701912
709,0.06487591676701912
710,0.06487591676701912
711,0.05455571523811008
712,0.04013916537347838
713,0.025722615508845657
714,0.011306065644212935
715,-0.003110484220418763
716,-0.0072356800796320835
717,-0.0072356800796320835
718,-0.0072356800796320835
719,-0.0072356800796320835
720,-0.0072356800796320835
721,-0.017498186561559794
722,-0.03191473642619252
723,-0.04633128629082422
724,-0.06074783615545694
725,-0.07516438602008864
726,-0.0793472769262833
727,-0.0793472769262833
728,-0.0793472769262833
729,-0.0793472769262833
730,-0.0793472769262833
731,-0.08955208836122967
732,-0.10396863822586137
733,-0.11838518809049306
734,-0.13280173795512476
735,-0.1472182878197575
736,-0.1718108015958439
737,-0.2006439013251083
738,-0.22947700105437374
739,-0.25831010078363814
740,-0.2871432005128985
741,-0.29568206746623693
742,-0.29568206746623693
743,-0.29568206746623693
744,-0.29568206746623693
745,-0.29568206746623693
746,-0.2855637986017656
747,-0.27114724873713286
748,-0.25673069887250116
749,-0.24231414900786846
750,-0.22789759914323574
751,-0.21348104927860403
752,-0.19906449941397233
753,-0.18464794954934063
754,-0.1702313996847079
755,-0.1558148498200762
756,-0.1514588737729345
757,-0.1514588737729345
758,-0.1514588737729345
759,-0.1514588737729345
760,-0.1514588737729345
761,-0.17152232636093517
762,-0.20035542609019857
763,-0.229188525819463
764,-0.2580216255487264
765,-0.28685472527799083
766,-0.29568206746623693
767,-0.29568206746623693
768,-0.29568206746623693
769,-0.29568206746623693
770,-0.29568206746623693
771,-0.29568206746623693
772,-0.29568206746623693
773,-0.29568206746623693
774,-0.29568206746623693
775,-0.29568206746623693
776,-0.29568206746623693
777,-0.29568206746623693
778,-0.29568206746623693
779,-0.29568206746623693
780,-0.29568206746623693
781,-0.29568206746623693
782,-0.29568206746623693
783,-0.29568206746623693
784,-0.29568206746623693
785,-0.29568206746623693
786,-0.28579457878969294
787,-0.27137802892506124
788,-0.25696147906042854
789,-0.24254492919579684
790,-0.22812837933116514
791,-0.2235704706195857
792,-0.2235704706195857
793,-0.2235704706195857
794,-0.2235704706195857
795,-0.2235704706195857
796,-0.2235704706195857
797,-0.2235704706195857
798,-0.2235704706195857
799,-0.2235704706195857
800,-0.2235704706195857
801,-0.21376952451351375
802,-0.19935297464888205
803,-0.18493642478424935
804,-0.17051987491961765
805,-0.15610332505498492
806,-0.1514588737729345
807,-0.1514588737729345
808,-0.1514588737729345
809,-0.1514588737729345
810,-0.1514588737729345
811,-0.1417156227138439
812,-0.12729907284921219
813,-0.11288252298457946
814,-0.09846597311994675
815,-0.08404942325531504
816,-0.0890616804618822
817,-0.1034782303265139
818,-0.1178947801911456
819,-0.1323113300557773
820,-0.146727879920409
821,-0.14177331776082727
822,-0.12735676789619557
823,-0.11294021803156387
824,-0.09852366816693217
825,-0.08410711830230047
826,-0.06969056843766774
827,-0.05527401857303502
828,-0.04085746870840333
829,-0.026440918843770606
830,-0.012024368979138908
831,-0.01686354104475798
832,-0.03128009090938968
833,-0.04569664077402138
834,-0.06011319063865308
835,-0.0745297405032858
836,-0.0793472769262833
837,-0.0793472769262833
838,-0.0793472769262833
839,-0.0793472769262833
840,-0.0793472769262833
841,-0.0793472769262833
842,-0.0793472769262833
843,-0.0793472769262833
844,-0.0793472769262833
845,-0.0793472769262833
846,-0.0793472769262833
847,-0.0793472769262833
848,-0.0793472769262833
849,-0.0793472769262833
850,-0.0793472769262833
851,-0.0793472769262833
852,-0.0793472769262833
853,-0.0793472769262833
854,-0.0793472769262833
855,-0.0793472769262833
856,-0.08883090027395278
857,-0.10324745013858551
858,-0.11766400000321721
859,-0.13208054986784992
860,-0.14649709973248265
861,-0.1514588737729345
862,-0.1514588737729345
863,-0.1514588737729345
864,-0.1514588737729345
865,-0.1514588737729345
866,-0.16088480207362266
867,-0.17530135193825436
868,-0.18971790180288606
869,-0.20413445166751878
870,-0.21855100153215049
871,-0.2235704706195857
872,-0.2235704706195857
873,-0.2235704706195857
874,-0.2235704706195857
875,-0.2235704706195857
876,-0.2235704706195857
877,-0.2235704706195857
878,-0.2235704706195857
879,-0.2235704706195857
880,-0.2235704706195857
881,-0.23290985634980085
882,-0.24732640621443358
883,-0.2617429560790663
884,-0.276159505943698
885,-0.29057605580833074
886,-0.29568206746623693
887,-0.29568206746623693
888,-0.29568206746623693
889,-0.29568206746623693
890,-0.29568206746623693
891,-0.29568206746623693
892,-0.29568206746623693
893,-0.29568206746623693
894,-0.29568206746623693
895,-0.29568206746623693
896,-0.29568206746623693
897,-0.29568206746623693
898,-0.29568206746623693
899,-0.29568206746623693
900,-0.29568206746623693
901,-0.29568206746623693
902,-0.29568206746623693
903,-0.29568206746623693
904,-0.29568206746623693
905,-0.29568206746623693
906,-0.2864869193534761
907,-0.2720703694888434
908,-0.2576538196242117
909,-0.24323726975958
910,-0.2288207198949483
911,-0.19607156885177737
912,-0.15282191925788124
913,-0.10957226966398616
914,-0.06632262007009003
915,-0.023072970476193912
916,0.0019017729861463544
917,0.016318322850778052
918,0.030734872715410776
919,0.045151422580043496
920,0.059567972444675196
921,0.0739845223093069
922,0.08840107217393962
923,0.10281762203857131
924,0.11723417190320301
925,0.1316507217678347
926,0.14606727163246744
927,0.16048382149709914
928,0.17490037136173187
929,0.18931692122636457
930,0.20373347109099424
931,0.21815002095562694
932,0.23256657082025864
933,0.24698312068489034
934,0.26139967054952207
935,0.27581622041415377
936,0.30827689622241394
937,0.35152654581631004
938,0.3947761954102072
939,0.4380258450041043
940,0.48127549459800145
941,0.49754549784692637
942,0.49754549784692637
943,0.49754549784692637
944,0.49754549784692637
945,0.49754549784692637
946,0.49754549784692637
947,0.49754549784692637
948,0.49754549784692637
949,0.49754549784692637
950,0.49754549784692637
951,0.4886099774455836
952,0.4741934275809519
953,0.4597768777163202
954,0.4453603278516885
955,0.4309437779870558
956,0.407620555244573
957,0.3787874555153086
958,0.34995435578604417
959,0.3211212560567787
960,0.2922881563275143
961,0.2723328819526113
962,0.2579163320879796
963,0.24349978222334792
964,0.22908323235871622
965,0.2146666824940835
966,0.20909911046032154
967,0.20909911046032154
968,0.20909911046032154
969,0.20909911046032154
970,0.20909911046032154
971,0.18263871953819252
972,0.1393890699442964
973,0.09613942035039927
974,0.05288977075650212
975,0.009640121162604974
976,-0.03360952843129115
977,-0.07685917802518727
978,-0.12010882761908236
979,-0.16335847721297847
980,-0.20660812680687357
981,-0.23233290587998037
982,-0.2467494557446131
983,-0.2611660056092448
984,-0.2755825554738775
985,-0.28999910533851025
986,-0.30441565520314195
987,-0.3188322050677736
988,-0.3332487549324053
989,-0.34766530479703806
990,-0.36208185466166976
991,-0.37649840452630146
992,-0.39091495439093416
993,-0.4053315042555669
994,-0.4197480541201986
995,-0.4341646039848313
996,-0.448581153849463
997,-0.4629977037140947
998,-0.4774142535787274
999,-0.4918308034433591
1000,-0.5062473533079909
1001,-0.5120168580061906
1002,-0.5120168580061906
1003,-0.5120168580061906
1004,-0.5120168580061906
1005,-0.5120168580061906
1006,-0.5120168580061906
1007,-0.5120168580061906
1008,-0.5120168580061906
1009,-0.5120168580061906
1010,-0.5120168580061906
1011,-0.5120168580061906
1012,-0.5120168580061906
1013,-0.5120168580061906
1014,-0.5120168580061906
1015,-0.5120168580061906
1016,-0.5120168580061906
1017,-0.5120168580061906
1018,-0.5120168580061906
1019,-0.5120168580061906
1020,-0.5120168580061906
1021,-0.5120168580061906
1022,-0.5120168580061906
1023,-0.5120168580061906
1024,-0.5120168580061906
1025,-0.5120168580061906
1026,-0.5205196655551672
1027,-0.5349362154197989
1028,-0.5493527652844316
1029,-0.5637693151490633
1030,-0.578185865013696
1031,-0.5841284548528417
1032,-0.5841284548528417
1033,-0.5841284548528417
1034,-0.5841284548528417
1035,-0.5841284548528417
1036,-0.5841284548528417
1037,-0.5841284548528417
1038,-0.5841284548528417
1039,-0.5841284548528417
1040,-0.5841284548528417
1041,-0.5841284548528417
1042,-0.5841284548528417
1043,-0.5841284548528417
1044,-0.5841284548528417
1045,-0.5841284548528417
1046,-0.5841284548528417
1047,-0.5841284548528417
1048,-0.5841284548528417
1049,-0.5841284548528417
1050,-0.5841284548528417
1051,-0.5841284548528417
1052,-0.5841284548528417
1053,-0.5841284548528417
1054,-0.5841284548528417
1055,-0.5841284548528417
1056,-0.5757987324448112
1057,-0.5613821825801795
1058,-0.5469656327155478
1059,-0.5325490828509161
1060,-0.5181325329862834
1061,-0.4954151082371127
1062,-0.4665820085078483
1063,-0.4377489087785839
1064,-0.40891580904931846
1065,-0.380082709320054
1066,-0.3264335275076429
1067,-0.2543507781844834
1068,-0.18226802886132384
1069,-0.11018527953816433
1070,-0.038102530215004815
1071,0.025737039270598165
1072,0.08340323872912803
1073,0.14106943818765688
1074,0.1987356376461857
1075,0.2564018371047156
1076,0.3058537042491765
1077,0.3491033538430716
1078,0.3923530034369677
1079,0.4356026530308628
1080,0.4788523026247589
1081,0.4893600130563522
1082,0.47494346319171943
1083,0.46052691332708773
1084,0.44611036346245503
1085,0.43169381359782233
1086,0.4091206264661061
1087,0.3802875267368427
1088,0.35145442700757823
1089,0.32262132727831483
1090,0.29378822754905043
1091,0.2730829175633799
1092,0.2586663676987472
1093,0.24424981783411548
1094,0.22983326796948275
1095,0.21541671810485002
1096,0.1767033415799087
1097,0.11903714212138088
1098,0.061370942662853055
1099,0.003704743204325241
1100,-0.053961456254202574
1101,-0.11969775040934089
1102,-0.19178049973250144
1103,-0.26386324905566094
1104,-0.33594599837882044
1105,-0.40802874770198
1106,-0.4881527441982603
1107,-0.5746520433860546
1108,-0.6611513425738479
1109,-0.7476506417616422
1110,-0.8341499409494365
1111,-0.8725748422394466
1112,-0.8725748422394466
1113,-0.8725748422394466
1114,-0.8725748422394466
1115,-0.8725748422394466
1116,-0.8725748422394466
1117,-0.8725748422394466
1118,-0.8725748422394466
1119,-0.8725748422394466
1120,-0.8725748422394466
1121,-0.8646201376367998
1122,-0.8502035877721681
1123,-0.8357870379075353
1124,-0.8213704880429036
1125,-0.8069539381782719
1126,-0.8004632453927953
1127,-0.8004632453927953
1128,-0.8004632453927953
1129,-0.8004632453927953
1130,-0.8004632453927953
1131,-0.7767722167257979
1132,-0.7335225671319018
1133,-0.6902729175380067
1134,-0.6470232679441106
1135,-0.6037736183502145
1136,-0.5841284548528417
1137,-0.5841284548528417
1138,-0.5841284548528417
1139,-0.5841284548528417
1140,-0.5841284548528417
1141,-0.5841284548528417
1142,-0.5841284548528417
1143,-0.5841284548528417
1144,-0.5841284548528417
1145,-0.5841284548528417
1146,-0.5841284548528417
1147,-0.5841284548528417
1148,-0.5841284548528417
1149,-0.5841284548528417
1150,-0.5841284548528417
1151,-0.5841284548528417
1152,-0.5841284548528417
1153,-0.5841284548528417
1154,-0.5841284548528417
1155,-0.5841284548528417
1156,-0.5918812267910539
1157,-0.6062977766556835
1158,-0.6207143265203152
1159,-0.6351308763849469
1160,-0.6495474262495786
1161,-0.6485161272847745
1162,-0.6340995774201428
1163,-0.6196830275555101
1164,-0.6052664776908774
1165,-0.5908499278262457
1166,-0.5841284548528417
1167,-0.5841284548528417
1168,-0.5841284548528417
1169,-0.5841284548528417
1170,-0.5841284548528417
1171,-0.5841284548528417
1172,-0.5841284548528417
1173,-0.5841284548528417
1174,-0.5841284548528417
1175,-0.5841284548528417
1176,-0.5841284548528417
1177,-0.5841284548528417
1178,-0.5841284548528417
1179,-0.5841284548528417
1180,-0.5841284548528417
1181,-0.576519920532086
1182,-0.5621033706674533
1183,-0.5476868208028216
1184,-0.5332702709381888
1185,-0.5188537210735571
1186,-0.5120168580061906
1187,-0.5120168580061906
1188,-0.5120168580061906
1189,-0.5120168580061906
1190,-0.5120168580061906
1191,-0.519567697279965
1192,-0.5339842471445967
1193,-0.5484007970092284
1194,-0.5628173468738611
1195,-0.5772338967384907
1196,-0.576606463102561
1197,-0.5621899132379283
1198,-0.5477733633732966
1199,-0.5333568135086639
1200,-0.5189402636440312
1201,-0.5120168580061906
1202,-0.5120168580061906
1203,-0.5120168580061906
1204,-0.5120168580061906
1205,-0.5120168580061906
1206,-0.5045525613028912
1207,-0.49013601143825847
1208,-0.47571946157362677
1209,-0.461302911708994
1210,-0.4468863618443613
1211,-0.4324698119797296
1212,-0.4180532621150979
1213,-0.4036367122504652
1214,-0.3892201623858335
1215,-0.3748036125212018
1216,-0.37520026596920614
1217,-0.38961681583383884
1218,-0.4040333656984716
1219,-0.4184499155631033
1220,-0.432866465427736
1221,-0.4399052611595393
1222,-0.4399052611595393
1223,-0.4399052611595393
1224,-0.4399052611595393
1225,-0.4399052611595393
1226,-0.4399052611595393
1227,-0.4399052611595393
1228,-0.4399052611595393
1229,-0.4399052611595393
1230,-0.4399052611595393
1231,-0.4399052611595393
1232,-0.4399052611595393
1233,-0.4399052611595393
1234,-0.4399052611595393
1235,-0.4399052611595393
1236,-0.432614049597186
1237,-0.41819749973255327
1238,-0.40378094986792157
1239,-0.38936440000328987
1240,-0.37494785013865817
1241,-0.3677936643128881
1242,-0.3677936643128881
1243,-0.3677936643128881
1244,-0.3677936643128881
1245,-0.3677936643128881
1246,-0.3677936643128881
1247,-0.3677936643128881
1248,-0.3677936643128881
1249,-0.3677936643128881
1250,-0.3677936643128881
1251,-0.3677936643128881
1252,-0.3677936643128881
1253,-0.3677936643128881
1254,-0.3677936643128881
1255,-0.3677936643128881
1256,-0.36061784284450055
1257,-0.34620129297986885
1258,-0.33178474311523615
1259,-0.3173681932506034
1260,-0.3029516433859717
1261,-0.29568206746623693
1262,-0.29568206746623693
1263,-0.29568206746623693
1264,-0.29568206746623693
1265,-0.29568206746623693
1266,-0.28856394104482863
1267,-0.27414739118019693
1268,-0.2597308413155642
1269,-0.24531429145093148
1270,-0.23089774158629978
1271,-0.2235704706195857
1272,-0.2235704706195857
1273,-0.2235704706195857
1274,-0.2235704706195857
1275,-0.2235704706195857
1276,-0.2235704706195857
1277,-0.2235704706195857
1278,-0.2235704706195857
1279,-0.2235704706195857
1280,-0.2235704706195857
1281,-0.2235704706195857
1282,-0.2235704706195857
1283,-0.2235704706195857
1284,-0.2235704706195857
1285,-0.2235704706195857
1286,-0.20956499796469547
1287,-0.18073189823543206
1288,-0.1518987985061697
1289,-0.1230656987769063
1290,-0.09423259904764292
1291,-0.0723733881223314
1292,-0.05795683825769868
1293,-0.04354028839306698
1294,-0.029123738528434258
1295,-0.014707188663802561
1296,-0.00029063879916983764
1297,0.014125911065462885
1298,0.028542460930094583
1299,0.042959010794727304
1300,0.057375560659359004
1301,0.06487591676701912
1302,0.06487591676701912
1303,0.06487591676701912
1304,0.06487591676701912
1305,0.06487591676701912
1306,0.06487591676701912
1307,0.06487591676701912
1308,0.06487591676701912
1309,0.06487591676701912
1310,0.06487591676701912
1311,0.058017418057029896
1312,0.043600868192397176
1313,0.029184318327765475
1314,0.014767768463132753
1315,0.0003512185985000301
1316,-0.0072356800796320835
1317,-0.0072356800796320835
1318,-0.0072356800796320835
1319,-0.0072356800796320835
1320,-0.0072356800796320835
1321,-0.014036483742642027
1322,-0.02845303360727475
1323,-0.04286958347190645
1324,-0.057286133336539174
1325,-0.07170268320117189
1326,-0.08611923306580359
1327,-0.10053578293043529
1328,-0.1149523327950629
1329,-0.12936888265969357
1330,-0.14378543252432527
1331,-0.15820198238895697
1332,-0.17261853225358967
1333,-0.1870350821182224
1334,-0.2014516319828541
1335,-0.21586818184748682
1336,-0.23028473171211852
1337,-0.24470128157675125
1338,-0.25911783144138395
1339,-0.27353438130601565
1340,-0.2879509311706484
1341,-0.3023674810352801
1342,-0.3167840308999118
1343,-0.3312005807645435
1344,-0.3456171306291752
1345,-0.36003368049380585
1346,-0.3677936643128881
1347,-0.3677936643128881
1348,-0.3677936643128881
1349,-0.3677936643128881
1350,-0.3677936643128881
1351,-0.3677936643128881
1352,-0.3677936643128881
1353,-0.3677936643128881
1354,-0.3677936643128881
1355,-0.3677936643128881
1356,-0.3677936643128881
1357,-0.3677936643128881
1358,-0.3677936643128881
1359,-0.3677936643128881
1360,-0.3677936643128881
1361,-0.37436368778796864
1362,-0.38878023765260034
1363,-0.40319678751723204
1364,-0.41761333738186374
1365,-0.43202988724649544
1366,-0.4399052611595393
1367,-0.4399052611595393
1368,-0.4399052611595393
1369,-0.4399052611595393
1370,-0.4399052611595393
1371,-0.4464175895876375
1372,-0.4608341394522692
1373,-0.4752506893169019
1374,-0.4896672391815336
1375,-0.5040837890461664
1376,-0.5120168580061906
1377,-0.5120168580061906
1378,-0.5120168580061906
1379,-0.5120168580061906
1380,-0.5120168580061906
1381,-0.5120168580061906
1382,-0.5120168580061906
1383,-0.5120168580061906
1384,-0.5120168580061906
1385,-0.5120168580061906
1386,-0.5120168580061906
1387,-0.5120168580061906
1388,-0.5120168580061906
1389,-0.5120168580061906
1390,-0.5120168580061906
1391,-0.5120168580061906
1392,-0.5120168580061906
1393,-0.5120168580061906
1394,-0.5120168580061906
1395,-0.5120168580061906
1396,-0.5056487671955456
1397,-0.491232217330914
1398,-0.4768156674662823
1399,-0.4623991176016506
1400,-0.4479825677370189
1401,-0.4399052611595393
1402,-0.4399052611595393
1403,-0.4399052611595393
1404,-0.4399052611595393
1405,-0.4399052611595393
1406,-0.4399052611595393
1407,-0.4399052611595393
1408,-0.4399052611595393
1409,-0.4399052611595393
1410,-0.4399052611595393
1411,-0.4399052611595393
1412,-0.4399052611595393
1413,-0.4399052611595393
1414,-0.4399052611595393
1415,-0.4399052611595393
1416,-0.4399052611595393
1417,-0.4399052611595393
1418,-0.4399052611595393
1419,-0.4399052611595393
1420,-0.4399052611595393
1421,-0.4399052611595393
1422,-0.4399052611595393
1423,-0.4399052611595393
1424,-0.4399052611595393
1425,-0.4399052611595393
1426,-0.4399052611595393
1427,-0.4399052611595393
1428,-0.4399052611595393
1429,-0.4399052611595393
1430,-0.4399052611595393
1431,-0.4399052611595393
1432,-0.4399052611595393
1433,-0.4399052611595393
1434,-0.4399052611595393
1435,-0.4399052611595393
1436,-0.44604257178225165
1437,-0.4604591216468844
1438,-0.4748756715115171
1439,-0.4892922213761488
1440,-0.5037087712407815
1441,-0.5120168580061906
1442,-0.5120168580061906
1443,-0.5120168580061906
1444,-0.5120168580061906
1445,-0.5120168580061906
1446,-0.5120168580061906
1447,-0.5120168580061906
1448,-0.5120168580061906
1449,-0.5120168580061906
1450,-0.5120168580061906
1451,-0.5120168580061906
1452,-0.5120168580061906
1453,-0.5120168580061906
1454,-0.5120168580061906
1455,-0.5120168580061906
1456,-0.5120168580061906
1457,-0.5120168580061906
1458,-0.5120168580061906
1459,-0.5120168580061906
1460,-0.5120168580061906
1461,-0.5120168580061906
1462,-0.5120168580061906
1463,-0.5120168580061906
1464,-0.5120168580061906
1465,-0.5120168580061906
1466,-0.5120168580061906
1467,-0.5120168580061906
1468,-0.5120168580061906
1469,-0.5120168580061906
1470,-0.5120168580061906
1471,-0.5120168580061906
1472,-0.5120168580061906
1473,-0.5120168580061906
1474,-0.5120168580061906
1475,-0.5120168580061906
1476,-0.5061103275714025
1477,-0.4916937777067708
1478,-0.47727722784213805
1479,-0.46286067797750635
1480,-0.44844412811287776
1481,-0.4399052611595393
1482,-0.4399052611595393
1483,-0.4399052611595393
1484,-0.4399052611595393
1485,-0.4399052611595393
1486,-0.4399052611595393
1487,-0.4399052611595393
1488,-0.4399052611595393
1489,-0.4399052611595393
1490,-0.4399052611595393
1491,-0.4399052611595393
1492,-0.4399052611595393
1493,-0.4399052611595393
1494,-0.4399052611595393
1495,-0.4399052611595393
1496,-0.4456964015003606
1497,-0.4601129513649923
1498,-0.474529501229625
1499,-0.48894605109425776
1500,-0.5033626009588894
1501,-0.5120168580061906
1502,-0.5120168580061906
1503,-0.5120168580061906
1504,-0.5120168580061906
1505,-0.5120168580061906
1506,-0.5120168580061906
1507,-0.5120168580061906
1508,-0.5120168580061906
1509,-0.5120168580061906
1510,-0.5120168580061906
1511,-0.5120168580061906
1512,-0.5120168580061906
1513,-0.5120168580061906
1514,-0.5120168580061906
1515,-0.5120168580061906
1516,-0.5120168580061906
1517,-0.5120168580061906
1518,-0.5120168580061906
1519,-0.5120168580061906
1520,-0.5120168580061906
1521,-0.5120168580061906
1522,-0.5120168580061906
1523,-0.5120168580061906
1524,-0.5120168580061906
1525,-0.5120168580061906
1526,-0.5120168580061906
1527,-0.5120168580061906
1528,-0.5120168580061906
1529,-0.5120168580061906
1530,-0.5120168580061906
1531,-0.5120168580061906
1532,-0.5120168580061906
1533,-0.5120168580061906
1534,-0.5120168580061906
1535,-0.5120168580061906
1536,-0.5120168580061906
1537,-0.5120168580061906
1538,-0.5120168580061906
1539,-0.5120168580061906
1540,-0.5120168580061906
1541,-0.5120168580061906
1542,-0.5120168580061906
1543,-0.5120168580061906
1544,-0.5120168580061906
1545,-0.5120168580061906
1546,-0.506514192900278
1547,-0.49209764303564524
1548,-0.47768109317101354
1549,-0.4632645433063808
1550,-0.4488479934417481
1551,-0.4344314435771164
1552,-0.4200148937124837
1553,-0.405598343847852
1554,-0.39118179398321923
1555,-0.37676524411859064
1556,-0.36234869425395894
1557,-0.34793214438932724
1558,-0.33351559452469554
1559,-0.31909904466006384
1560,-0.30468249479543313
1561,-0.29026594493080143
1562,-0.27584939506616873
1563,-0.261432845201536
1564,-0.2470162953369043
1565,-0.23259974547227158
1566,-0.2235704706195857
1567,-0.2235704706195857
1568,-0.2235704706195857
1569,-0.2235704706195857
1570,-0.2235704706195857
1571,-0.21285361564267233
1572,-0.1840205159134079
1573,-0.15518741618414347
1574,-0.12635431645487805
1575,-0.09752121672561362
1576,-0.07401769696131676
1577,-0.059601147096685056
1578,-0.045184597232053356
1579,-0.03076804736742166
1580,-0.016351497502790985
1581,0.008666517244788355
1582,0.051916166838685496
1583,0.09516581643258162
1584,0.13841546602647875
1585,0.1816651156203759
1586,0.20909911046032154
1587,0.20909911046032154
1588,0.20909911046032154
1589,0.20909911046032154
1590,0.20909911046032154
1591,0.20909911046032154
1592,0.20909911046032154
1593,0.20909911046032154
1594,0.20909911046032154
1595,0.20909911046032154
1596,0.20909911046032154
1597,0.20909911046032154
1598,0.20909911046032154
1599,0.20909911046032154
1600,0.20909911046032154
1601,0.20909911046032154
1602,0.20909911046032154
1603,0.20909911046032154
1604,0.20909911046032154
1605,0.20909911046032154
1606,0.2039426156363
1607,0.1895260657716683
1608,0.1751095159070356
1609,0.16069296604240288
1610,0.14627641617777118
1611,0.11647692441154486
1612,0.058810724953019096
1613,0.0011445254944923047
1614,-0.056521673964033466
1615,-0.11418787342255923
1616,-0.16675527310404892
1617,-0.21000492269794502
1618,-0.2532545722918422
1619,-0.2965042218857393
1620,-0.3397538714796365
1621,-0.37793356881998513
1622,-0.40676666854924953
1623,-0.43559976827851393
1624,-0.4644328680077784
1625,-0.4932659677370438
1626,-0.5170579627362494
1627,-0.5314745126008811
1628,-0.5458910624655138
1629,-0.5603076123301465
1630,-0.5747241621947782
1631,-0.5841284548528417
1632,-0.5841284548528417
1633,-0.5841284548528417
1634,-0.5841284548528417
1635,-0.5841284548528417
1636,-0.5891118645359131
1637,-0.6035284144005458
1638,-0.6179449642651775
1639,-0.6323615141298102
1640,-0.6467780639944429
1641,-0.656240051699493
1642,-0.656240051699493
1643,-0.656240051699493
1644,-0.656240051699493
1645,-0.656240051699493
1646,-0.661165766335585
1647,-0.6755823162002167
1648,-0.6899988660648484
1649,-0.7044154159294791
1650,-0.7188319657941108
1651,-0.7332485156587425
1652,-0.7476650655233752
1653,-0.7620816153880069
1654,-0.7764981652526396
1655,-0.7909147151172724
1656,-0.8004632453927953
1657,-0.8004632453927953
1658,-0.8004632453927953
1659,-0.8004632453927953
1660,-0.8004632453927953
1661,-0.8004632453927953
1662,-0.8004632453927953
1663,-0.8004632453927953
1664,-0.8004632453927953
1665,-0.8004632453927953
1666,-0.8052735699349248
1667,-0.8196901197995565
1668,-0.8341066696641882
1669,-0.8485232195288188
1670,-0.8629397693934505
1671,-0.8725748422394466
1672,-0.8725748422394466
1673,-0.8725748422394466
1674,-0.8725748422394466
1675,-0.8725748422394466
1676,-0.8678222127443005
1677,-0.8534056628796678
1678,-0.8389891130150351
1679,-0.8245725631504034
1680,-0.8101560132857706
1681,-0.8004632453927953
1682,-0.8004632453927953
1683,-0.8004632453927953
1684,-0.8004632453927953
1685,-0.8004632453927953
1686,-0.8004632453927953
1687,-0.8004632453927953
1688,-0.8004632453927953
1689,-0.8004632453927953
1690,-0.8004632453927953
1691,-0.8004632453927953
1692,-0.8004632453927953
1693,-0.8004632453927953
1694,-0.8004632453927953
1695,-0.8004632453927953
1696,-0.8051004847939798
1697,-0.8195170346586115
1698,-0.8339335845232442
1699,-0.8483501343878759
1700,-0.8627666842525086
1701,-0.8679664503617528
1702,-0.8535499004971211
1703,-0.8391333506324894
1704,-0.8247168007678577
1705,-0.810300250903226
1706,-0.7867246123301933
1707,-0.7434749627363084
1708,-0.7002253131424113
1709,-0.6569756635485141
1710,-0.613726013954618
1711,-0.5613749706993063
1712,-0.4892922213761447
1713,-0.41720947205298314
1714,-0.3451267227298216
1715,-0.27304397340666003
1716,-0.20096122408349845
1717,-0.12887847476033687
1718,-0.056795725437175315
1719,0.015287023885986252
1720,0.08736977320914782
1721,0.15495952074858035
1722,0.2126257202071061
1723,0.2702919196656329
1724,0.3279581191241587
1725,0.3856243185826844
1726,0.42543390100027517
1727,0.42543390100027517
1728,0.42543390100027517
1729,0.42543390100027517
1730,0.42543390100027517
1731,0.42543390100027517
1732,0.42543390100027517
1733,0.42543390100027517
1734,0.42543390100027517
1735,0.42543390100027517
1736,0.4078080641472562
1737,0.35014186468873043
1738,0.2924756652302047
1739,0.23480946577167786
1740,0.1771432663131521
1741,0.1107218434751028
1742,0.024222544287308512
1743,-0.06227675490048475
1744,-0.14877605408827904
1745,-0.23527535327607332
1746,-0.3261234166301382
1747,-0.4270392656825642
1748,-0.5279551147349912
1749,-0.6288709637874171
1750,-0.7297868128398431
1751,-0.8047831620355773
1752,-0.81919971190021
1753,-0.8336162617648417
1754,-0.8480328116294744
1755,-0.8624493614941061
1756,-0.8725748422394466
1757,-0.8725748422394466
1758,-0.8725748422394466
1759,-0.8725748422394466
1760,-0.8725748422394466
1761,-0.8725748422394466
1762,-0.8725748422394466
1763,-0.8725748422394466
1764,-0.8725748422394466
1765,-0.8725748422394466
1766,-0.8683414681671376
1767,-0.8539249183025048
1768,-0.8395083684378731
1769,-0.8250918185732404
1770,-0.8106752687086077
1771,-0.8004632453927953
1772,-0.8004632453927953
1773,-0.8004632453927953
1774,-0.8004632453927953
1775,-0.8004632453927953
1776,-0.8004632453927953
1777,-0.8004632453927953
1778,-0.8004632453927953
1779,-0.8004632453927953
1780,-0.8004632453927953
1781,-0.8004632453927953
1782,-0.8004632453927953
1783,-0.8004632453927953
1784,-0.8004632453927953
1785,-0.8004632453927953
1786,-0.8004632453927953
1787,-0.8004632453927953
1788,-0.8004632453927953
1789,-0.8004632453927953
1790,-0.8004632453927953
1791,-0.8004632453927953
1792,-0.8004632453927953
1793,-0.8004632453927953
1794,-0.8004632453927953
1795,-0.8004632453927953
1796,-0.8004632453927953
1797,-0.8004632453927953
1798,-0.8004632453927953
1799,-0.8004632453927953
1800,-0.8004632453927953
1801,-0.8004632453927953
1802,-0.8004632453927953
1803,-0.8004632453927953
1804,-0.8004632453927953
1805,-0.8004632453927953
1806,-0.8004632453927953
1807,-0.8004632453927953
1808,-0.8004632453927953
1809,-0.8004632453927953
1810,-0.8004632453927953
1811,-0.8004632453927953
1812,-0.8004632453927953
1813,-0.8004632453927953
1814,-0.8004632453927953
1815,-0.8004632453927953
1816,-0.7965183465553982
1817,-0.7821017966907665
1818,-0.7676852468261337
1819,-0.753268696961502
1820,-0.7388521470968693
1821,-0.7244355972322366
1822,-0.7100190473676049
1823,-0.6956024975029722
1824,-0.6811859476383405
1825,-0.6667693977737078
1826,-0.6523528479090761
1827,-0.6379362980444444
1828,-0.6235197481798127
1829,-0.609103198315181
1830,-0.5946866484505493
1831,-0.5841284548528417
1832,-0.5841284548528417
1833,-0.5841284548528417
1834,-0.5841284548528417
1835,-0.5841284548528417
1836,-0.5841284548528417
1837,-0.5841284548528417
1838,-0.5841284548528417
1839,-0.5841284548528417
1840,-0.5841284548528417
1841,-0.5841284548528417
1842,-0.5841284548528417
1843,-0.5841284548528417
1844,-0.5841284548528417
1845,-0.5841284548528417
1846,-0.5803566411563865
1847,-0.5659400912917558
1848,-0.5515235414271241
1849,-0.5371069915624924
1850,-0.5226904416978607
1851,-0.5120168580061906
1852,-0.5120168580061906
1853,-0.5120168580061906
1854,-0.5120168580061906
1855,-0.5120168580061906
1856,-0.5120168580061906
1857,-0.5120168580061906
1858,-0.5120168580061906
1859,-0.5120168580061906
1860,-0.5120168580061906
1861,-0.5120168580061906
1862,-0.5120168580061906
1863,-0.5120168580061906
1864,-0.5120168580061906
1865,-0.5120168580061906
1866,-0.5120168580061906
1867,-0.5120168580061906
1868,-0.5120168580061906
1869,-0.5120168580061906
1870,-0.5120168580061906
1871,-0.5083892819271958
1872,-0.4939727320625631
1873,-0.4795561821979314
1874,-0.46513963233329864
1875,-0.45072308246866594
1876,-0.4399052611595393
1877,-0.4399052611595393
1878,-0.4399052611595393
1879,-0.4399052611595393
1880,-0.4399052611595393
1881,-0.4399052611595393
1882,-0.4399052611595393
1883,-0.4399052611595393
1884,-0.4399052611595393
1885,-0.4399052611595393
1886,-0.4363642276510176
1887,-0.42194767778638487
1888,-0.40753112792175217
1889,-0.39311457805712047
1890,-0.3786980281924877
1891,-0.3677936643128881
1892,-0.3677936643128881
1893,-0.3677936643128881
1894,-0.3677936643128881
1895,-0.3677936643128881
1896,-0.3643103258513457
1897,-0.34989377598671295
1898,-0.33547722612208025
1899,-0.32106067625744855
1900,-0.3066441263928158
1901,-0.29568206746623693
1902,-0.29568206746623693
1903,-0.29568206746623693
1904,-0.29568206746623693
1905,-0.29568206746623693
1906,-0.29225642405167784
1907,-0.27783987418704514
1908,-0.2634233243224124
1909,-0.24900677445778072
1910,-0.234590224593148
1911,-0.2269672665106551
1912,-0.24138381637528783
1913,-0.25580036623992053
1914,-0.27021691610455223
1915,-0.284633465969185
1916,-0.29568206746623693
1917,-0.29568206746623693
1918,-0.29568206746623693
1919,-0.29568206746623693
1920,-0.29568206746623693
1921,-0.29234296662214676
1922,-0.27792641675751506
1923,-0.26350986689288336
1924,-0.2490933170282517
1925,-0.23467676716362
1926,-0.2202602172989883
1927,-0.2058436674343566
1928,-0.19142711756972386
1929,-0.17701056770509216
1930,-0.16259401784045946
1931,-0.14817746797582673
1932,-0.13376091811119503
1933,-0.1193443682465623
1934,-0.1049278183819306
1935,-0.09051126851730198
1936,-0.0793472769262833
1937,-0.0793472769262833
1938,-0.0793472769262833
1939,-0.0793472769262833
1940,-0.0793472769262833
1941,-0.0793472769262833
1942,-0.0793472769262833
1943,-0.0793472769262833
1944,-0.0793472769262833
1945,-0.0793472769262833
1946,-0.07615241369965264
1947,-0.06173586383502094
1948,-0.047319313970388216
1949,-0.032902764105755496
1950,-0.018486214241123795
1951,-0.0072356800796320835
1952,-0.0072356800796320835
1953,-0.0072356800796320835
1954,-0.0072356800796320835
1955,-0.0072356800796320835
1956,-0.0072356800796320835
1957,-0.0072356800796320835
1958,-0.0072356800796320835
1959,-0.0072356800796320835
1960,-0.0072356800796320835
1961,-0.010344000735789713
1962,-0.024760550600422437
1963,-0.039177100465054134
1964,-0.053593650329686854
1965,-0.06801020019431855
1966,-0.08242675005895128
1967,-0.096843299923584
1968,-0.1112598497882157
1969,-0.1256763996528484
1970,-0.1400929495174801
1971,-0.15756012499129118
1972,-0.18639322472055356
1973,-0.21522632444981696
1974,-0.24405942417908036
1975,-0.27289252390834273
1976,-0.29568206746623693
1977,-0.29568206746623693
1978,-0.29568206746623693
1979,-0.29568206746623693
1980,-0.29568206746623693
1981,-0.2986749980284319
1982,-0.3130915478930646
1983,-0.3275080977576963
1984,-0.341924647622329
1985,-0.3563411974869607
1986,-0.3677936643128881
1987,-0.3677936643128881
1988,-0.3677936643128881
1989,-0.3677936643128881
1990,-0.3677936643128881
1991,-0.3707288998281038
1992,-0.3851454496927355
1993,-0.3995619995573672
1994,-0.41397854942199785
1995,-0.42839509928662955
1996,-0.4399052611595393
1997,-0.4399052611595393
1998,-0.4399052611595393
1999,-0.4399052611595393
2000,-0.4399052611595393
2001,-0.4399052611595393
2002,-0.4399052611595393
2003,-0.4399052611595393
2004,-0.4399052611595393
2005,-0.4399052611595393
2006,-0.4399052611595393
2007,-0.4399052611595393
2008,-0.4399052611595393
2009,-0.4399052611595393
2010,-0.4399052611595393
2011,-0.4399052611595393
2012,-0.4399052611595393
2013,-0.4399052611595393
2014,-0.4399052611595393
2015,-0.4399052611595393
2016,-0.4426962590572945
2017,-0.45711280892192724
2018,-0.47152935878655994
2019,-0.48594590865119164
2020,-0.5003624585158244
2021,-0.5147790083804561
2022,-0.5291955582450888
2023,-0.5436121081097215
2024,-0.5580286579743532
2025,-0.5724452078389859
2026,-0.5813951520020658
2027,-0.5669786021374341
2028,-0.5525620522728024
2029,-0.5381455024081707
2030,-0.523728952543539
2031,-0.5120168580061906
2032,-0.5120168580061906
2033,-0.5120168580061906
2034,-0.5120168580061906
2035,-0.5120168580061906
2036,-0.5120168580061906
2037,-0.5120168580061906
2038,-0.5120168580061906
2039,-0.5120168580061906
2040,-0.5120168580061906
2041,-0.5093700977258866
2042,-0.4949535478612549
2043,-0.4805369979966222
2044,-0.4661204481319905
2045,-0.4517038982673578
2046,-0.4399052611595393
2047,-0.4399052611595393
2048,-0.4399052611595393
2049,-0.4399052611595393
2050,-0.4399052611595393
2051,-0.4399052611595393
2052,-0.4399052611595393
2053,-0.4399052611595393
2054,-0.4399052611595393
2055,-0.4399052611595393
2056,-0.4424654788693702
2057,-0.4568820287340019
2058,-0.4712985785986346
2059,-0.48571512846326736
2060,-0.5001316783278991
2061,-0.5120168580061906
2062,-0.5120168580061906
2063,-0.5120168580061906
2064,-0.5120168580061906
2065,-0.5120168580061906
2066,-0.5120168580061906
2067,-0.5120168580061906
2068,-0.5120168580061906
2069,-0.5120168580061906
2070,-0.5120168580061906
2071,-0.5120168580061906
2072,-0.5120168580061906
2073,-0.5120168580061906
2074,-0.5120168580061906
2075,-0.5120168580061906
2076,-0.5120168580061906
2077,-0.5120168580061906
2078,-0.5120168580061906
2079,-0.5120168580061906
2080,-0.5120168580061906
2081,-0.5096008779138119
2082,-0.4951843280491802
2083,-0.4807677781845496
2084,-0.4663512283199179
2085,-0.4519346784552862
2086,-0.4399052611595393
2087,-0.4399052611595393
2088,-0.4399052611595393
2089,-0.4399052611595393
2090,-0.4399052611595393
2091,-0.4399052611595393
2092,-0.4399052611595393
2093,-0.4399052611595393
2094,-0.4399052611595393
2095,-0.4399052611595393
2096,-0.4399052611595393
2097,-0.4399052611595393
2098,-0.4399052611595393
2099,-0.4399052611595393
2100,-0.4399052611595393
2101,-0.4399052611595393
2102,-0.4399052611595393
2103,-0.4399052611595393
2104,-0.4399052611595393
2105,-0.4399052611595393
2106,-0.4399052611595393
2107,-0.4399052611595393
2108,-0.4399052611595393
2109,-0.4399052611595393
2110,-0.4399052611595393
2111,-0.4399052611595393
2112,-0.4399052611595393
2113,-0.4399052611595393
2114,-0.4399052611595393
2115,-0.4399052611595393
2116,-0.4399052611595393
2117,-0.4399052611595393
2118,-0.4399052611595393
2119,-0.4399052611595393
2120,-0.4399052611595393
2121,-0.44209046106398436
2122,-0.4565070109286171
2123,-0.4709235607932498
2124,-0.4853401106578815
2125,-0.4997566605225143
2126,-0.5120168580061906
2127,-0.5120168580061906
2128,-0.5120168580061906
2129,-0.5120168580061906
2130,-0.5120168580061906
2131,-0.5120168580061906
2132,-0.5120168580061906
2133,-0.5120168580061906
2134,-0.5120168580061906
2135,-0.5120168580061906
2136,-0.5120168580061906
2137,-0.5120168580061906
2138,-0.5120168580061906
2139,-0.5120168580061906
2140,-0.5120168580061906
2141,-0.5120168580061906
2142,-0.5120168580061906
2143,-0.5120168580061906
2144,-0.5120168580061906
2145,-0.5120168580061906
2146,-0.5120168580061906
2147,-0.5120168580061906
2148,-0.5120168580061906
2149,-0.5120168580061906
2150,-0.5120168580061906
2151,-0.5120168580061906
2152,-0.5120168580061906
2153,-0.5120168580061906
2154,-0.5120168580061906
2155,-0.5120168580061906
2156,-0.5100335907661802
2157,-0.4956170409015484
2158,-0.4812004910369157
2159,-0.466783941172284
2160,-0.4523673913076513
2161,-0.4399052611595393
2162,-0.4399052611595393
2163,-0.4399052611595393
2164,-0.4399052611595393
2165,-0.4399052611595393
2166,-0.4399052611595393
2167,-0.4399052611595393
2168,-0.4399052611595393
2169,-0.4399052611595393
2170,-0.4399052611595393
2171,-0.4418019858290767
2172,-0.45621853569370735
2173,-0.47063508555833905
2174,-0.48505163542297075
2175,-0.49946818528760245
2176,-0.5120168580061906
2177,-0.5120168580061906
2178,-0.5120168580061906
2179,-0.5120168580061906
2180,-0.5120168580061906
2181,-0.5120168580061906
2182,-0.5120168580061906
2183,-0.5120168580061906
2184,-0.5120168580061906
2185,-0.5120168580061906
2186,-0.5102066759071262
2187,-0.49579012604249445
2188,-0.48137357617786175
2189,-0.466957026313229
2190,-0.4525404764485973
2191,-0.4381239265839646
2192,-0.4237073767193329
2193,-0.40929082685470225
2194,-0.39487427699007055
2195,-0.38045772712543885
2196,-0.36604117726080715
2197,-0.3516246273961744
2198,-0.3372080775315427
2199,-0.32279152766691
2200,-0.3083749778022783
2201,-0.29395842793764554
2202,-0.27954187807301284
2203,-0.26512532820838114
2204,-0.25070877834374844
2205,-0.2362922284791167
2206,-0.221875678614484
2207,-0.2074591287498523
2208,-0.1930425788852206
2209,-0.17862602902058994
2210,-0.16420947915595824
2211,-0.14812698480971856
2212,-0.11929388508045415
2213,-0.0904607853511887
2214,-0.061627685621924284
2215,-0.032794585892659864
2216,-0.003961486163395442
2217,0.024871613565870004
2218,0.053704713295134425
2219,0.08253781302439885
2220,0.11137091275366326
2221,0.13859576304829901
2222,0.15301231291293174
2223,0.16742886277756341
2224,0.18184541264219614
2225,0.19626196250682887
2226,0.21067851237146057
2227,0.22509506223609227
2228,0.23951161210072397
2229,0.25392816196535567
2230,0.2683447118299863
2231,0.28121070730697273
2232,0.28121070730697273
2233,0.28121070730697273
2234,0.28121070730697273
2235,0.28121070730697273
2236,0.2781672935786604
2237,0.24933419384939598
2238,0.22050109412013974
2239,0.19166799439087534
2240,0.16283489466160989
2241,0.13698751361367031
2242,0.13698751361367031
2243,0.13698751361367031
2244,0.13698751361367031
2245,0.13698751361367031
2246,0.13698751361367031
2247,0.13698751361367031
2248,0.13698751361367031
2249,0.13698751361367031
2250,0.13698751361367031
2251,0.13555234931999077
2252,0.12113579945535907
2253,0.10671924959072634
2254,0.09230269972609464
2255,0.07788614986146192
2256,0.0620632832266403
2257,0.03323018349737588
2258,0.004397083768111459
2259,-0.024436015961153988
2260,-0.05326911569041841
2261,-0.08347968466638209
2262,-0.1267293342602772
2263,-0.16997898385417126
2264,-0.21322863344806633
2265,-0.2564782830419604
2266,-0.29837931091264897
2267,-0.32721241064191336
2268,-0.3560455103711788
2269,-0.3848786101004433
2270,-0.4137117098297077
2271,-0.4425448095589721
2272,-0.47137790928823753
2273,-0.5002110090175019
2274,-0.5290441087467663
2275,-0.5578772084760308
2276,-0.585419381529069
2277,-0.5998359313937007
2278,-0.6142524812583334
2279,-0.6286690311229651
2280,-0.6430855809875978
2281,-0.656240051699493
2282,-0.656240051699493
2283,-0.656240051699493
2284,-0.656240051699493
2285,-0.656240051699493
2286,-0.656240051699493
2287,-0.656240051699493
2288,-0.656240051699493
2289,-0.656240051699493
2290,-0.656240051699493
2291,-0.656240051699493
2292,-0.656240051699493
2293,-0.656240051699493
2294,-0.656240051699493
2295,-0.656240051699493
2296,-0.6550645151172283
2297,-0.6406479652525966
2298,-0.626231415387966
2299,-0.6118148655233343
2300,-0.5973983156587026
2301,-0.5841284548528417
2302,-0.5841284548528417
2303,-0.5841284548528417
2304,-0.5841284548528417
2305,-0.5841284548528417
2306,-0.5841284548528417
2307,-0.5841284548528417
2308,-0.5841284548528417
2309,-0.5841284548528417
2310,-0.5841284548528417
2311,-0.5852174488646333
2312,-0.599633998729266
2313,-0.6140505485938977
2314,-0.6284670984585263
2315,-0.642883648323158
2316,-0.656240051699493
2317,-0.656240051699493
2318,-0.656240051699493
2319,-0.656240051699493
2320,-0.656240051699493
2321,-0.657271350664297
2322,-0.6716879005289298
2323,-0.6861044503935615
2324,-0.7005210002581942
2325,-0.7149375501228269
2326,-0.7283516485461441
2327,-0.7283516485461441
2328,-0.7283516485461441
2329,-0.7283516485461441
2330,-0.7283516485461441
2331,-0.7264044407104945
2332,-0.6975713409812311
2333,-0.6687382412519677
2334,-0.6399051415227054
2335,-0.611072041793442
2336,-0.5841284548528417
2337,-0.5841284548528417
2338,-0.5841284548528417
2339,-0.5841284548528417
2340,-0.5841284548528417
2341,-0.5832125459820003
2342,-0.5687959961173675
2343,-0.5543794462527358
2344,-0.5399628963881031
2345,-0.5255463465234704
2346,-0.5120168580061906
2347,-0.5120168580061906
2348,-0.5120168580061906
2349,-0.5120168580061906
2350,-0.5120168580061906
2351,-0.509442216534603
2352,-0.466192566940709
2353,-0.4229429173468139
2354,-0.3796932677529198
2355,-0.3364436181590247
2356,-0.29070586966402334
2357,-0.20420657047623006
2358,-0.11770727128843579
2359,-0.031207972100642523
2360,0.055291327087151766
2361,0.14099010749806626
2362,0.2130728568212278
2363,0.2851556061443894
2364,0.35723835546755095
2365,0.4293211047907125
2366,0.4967738265935372
2367,0.4823572767289045
2368,0.4679407268642718
2369,0.4535241769996401
2370,0.43910762713500734
2371,0.42543390100027517
2372,0.42543390100027517
2373,0.42543390100027517
2374,0.42543390100027517
2375,0.42543390100027517
2376,0.42543390100027517
2377,0.42543390100027517
2378,0.42543390100027517
2379,0.42543390100027517
2380,0.42543390100027517
2381,0.4220082575856915
2382,0.34992550826252994
2383,0.2778427589393684
2384,0.2057600096162068
2385,0.13367726029304525
2386,0.05962566749160324
2387,-0.055706731425449324
2388,-0.17103913034250187
2389,-0.2863715292595534
2390,-0.4017039281765732
2391,-0.5151540261858378
2392,-0.5872367755089993
2393,-0.6593195248321609
2394,-0.7314022741553224
2395,-0.803485023478484
2396,-0.8725748422394466
2397,-0.8725748422394466
2398,-0.8725748422394466
2399,-0.8725748422394466
2400,-0.8725748422394466
2401,-0.8720051036504962
2402,-0.8575885537858645
2403,-0.8431720039212317
2404,-0.828755454056599
2405,-0.8143389041919673
2406,-0.7993814632618739
2407,-0.7705483635326115
2408,-0.7417152638033481
2409,-0.7128821640740847
2410,-0.6840490643448224
2411,-0.655728008157526
2412,-0.6413114582928933
2413,-0.6268949084282616
2414,-0.6124783585636288
2415,-0.598061808698997
2416,-0.5841284548528417
2417,-0.5841284548528417
2418,-0.5841284548528417
2419,-0.5841284548528417
2420,-0.5841284548528417
2421,-0.583674106357854
2422,-0.5692575564932223
2423,-0.5548410066285906
2424,-0.5404244567639599
2425,-0.5260079068993282
2426,-0.5120168580061906
2427,-0.5120168580061906
2428,-0.5120168580061906
2429,-0.5120168580061906
2430,-0.5120168580061906
2431,-0.5120168580061906
2432,-0.5120168580061906
2433,-0.5120168580061906
2434,-0.5120168580061906
2435,-0.5120168580061906
2436,-0.5120168580061906
2437,-0.5120168580061906
2438,-0.5120168580061906
2439,-0.5120168580061906
2440,-0.5120168580061906
2441,-0.5120168580061906
2442,-0.5120168580061906
2443,-0.5120168580061906
2444,-0.5120168580061906
2445,-0.5120168580061906
2446,-0.5120168580061906
2447,-0.5120168580061906
2448,-0.5120168580061906
2449,-0.5120168580061906
2450,-0.5120168580061906
2451,-0.5117355946521488
2452,-0.49731904478751615
2453,-0.48290249492288445
2454,-0.4684859450582517
2455,-0.454069395193619
2456,-0.4399052611595393
2457,-0.4399052611595393
2458,-0.4399052611595393
2459,-0.4399052611595393
2460,-0.4399052611595393
2461,-0.4399052611595393
2462,-0.4399052611595393
2463,-0.4399052611595393
2464,-0.4399052611595393
2465,-0.4399052611595393
2466,-0.44009998194310385
2467,-0.4545165318077366
2468,-0.4689330816723693
2469,-0.483349631537001
2470,-0.49776618140163376
2471,-0.5118509847461156
2472,-0.49743443488148287
2473,-0.48301788501685017
2474,-0.46860133515221847
2475,-0.45418478528758577
2476,-0.43976823542295407
2477,-0.42535168555832237
2478,-0.41093513569369067
2479,-0.39651858582905897
2480,-0.38210203596442727
2481,-0.36768548609979557
2482,-0.35326893623516387
2483,-0.3388523863705311
2484,-0.3244358365058994
2485,-0.3100192866412667
2486,-0.29568206746623693
2487,-0.29568206746623693
2488,-0.29568206746623693
2489,-0.29568206746623693
2490,-0.29568206746623693
2491,-0.29568206746623693
2492,-0.29568206746623693
2493,-0.29568206746623693
2494,-0.29568206746623693
2495,-0.29568206746623693
2496,-0.2956604318236133
2497,-0.2812438819589816
2498,-0.26682733209434883
2499,-0.25241078222971713
2500,-0.23799423236508033
2501,-0.2235776825004517
2502,-0.23797980860335446
2503,-0.2523963584679821
2504,-0.2668129083326097
2505,-0.2812294581972455
2506,-0.2956460080618731
2507,-0.3100625579265089
2508,-0.3244791077911354
2509,-0.33889565765577123
2510,-0.3533122075203988
2511,-0.36772875738503463
2512,-0.35344202137611297
2513,-0.3390254715114751
2514,-0.3246089216468465
2515,-0.31019237178220965
2516,-0.29577582191758
2517,-0.28135927205294425
2518,-0.26694272218831766
2519,-0.25252617232368185
2520,-0.23810962245905426
2521,-0.22369307259441848
2522,-0.2235704706195857
2523,-0.2235704706195857
2524,-0.2235704706195857
2525,-0.2235704706195857
2526,-0.2235704706195857
2527,-0.20930537025327947
2528,-0.19488882038864982
2529,-0.18047227052401302
2530,-0.16605572065938337
2531,-0.15163917079474654
2532,-0.13722262093011894
2533,-0.12280607106548315
2534,-0.10838952120085657
2535,-0.09397297133622078
2536,-0.07955642147159317
2537,-0.0793472769262833
2538,-0.0793472769262833
2539,-0.0793472769262833
2540,-0.0793472769262833
2541,-0.0793472769262833
2542,-0.0793472769262833
2543,-0.0793472769262833
2544,-0.0793472769262833
2545,-0.0793472769262833
2546,-0.0793472769262833
2547,-0.06519756665393665
2548,-0.05078101678930906
2549,-0.03636446692467429
2550,-0.02194791706004669
2551,-0.007531367195410892
2552,-0.0072356800796320835
2553,-0.0072356800796320835
2554,-0.0072356800796320835
2555,-0.0072356800796320835
2556,-0.0072356800796320835
2557,0.006856335145735265
2558,0.021272885010362865
2559,0.03568943487499866
2560,0.050105984739625235
2561,0.06452253460426104
2562,0.07893908446888863
2563,0.09335563433352442
2564,0.10777218419815203
2565,0.1221887340627868
2566,0.1366052839274144
2567,0.15102183379205225
2568,0.16543838365668087
2569,0.17985493352131768
2570,0.19427148338594735
2571,0.20868803325058416
2572,0.20909911046032154
2573,0.20909911046032154
2574,0.20909911046032154
2575,0.20909911046032154
2576,0.20909911046032154
2577,0.20909911046032154
2578,0.20909911046032154
2579,0.20909911046032154
2580,0.20909911046032154
2581,0.20909911046032154
2582,0.20909911046032154
2583,0.20909911046032154
2584,0.20909911046032154
2585,0.20909911046032154
2586,0.20909911046032154
2587,0.20909911046032154
2588,0.20909911046032154
2589,0.20909911046032154
2590,0.20909911046032154
2591,0.20909911046032154
2592,0.20909911046032154
2593,0.20909911046032154
2594,0.20909911046032154
2595,0.20909911046032154
2596,0.20909911046032154
2597,0.22296034549775537
2598,0.23737689536239115
2599,0.25179344522701874
2600,0.26620999509165455
2601,0.28062654495628214
2602,0.28121070730697273
2603,0.28121070730697273
2604,0.28121070730697273
2605,0.28121070730697273
2606,0.28121070730697273
2607,0.25360362732607594
2608,0.22477052759680127
2609,0.195937427867543
2610,0.16710432813826936
2611,0.1382712284090111
2612,0.12321282114670543
2613,0.10879627128207782
2614,0.09437972141744203
2615,0.07996317155281443
2616,0.06554662168817862
2617,0.06487591676701912
2618,0.06487591676701912
2619,0.06487591676701912
2620,0.06487591676701912
2621,0.06487591676701912
2622,0.06487591676701912
2623,0.06487591676701912
2624,0.06487591676701912
2625,0.06487591676701912
2626,0.06487591676701912
2627,0.05118776687053031
2628,0.03677121700589554
2629,0.02235466714126794
2630,0.007938117276632144
2631,-0.006478432587995455
2632,-0.0072356800796320835
2633,-0.0072356800796320835
2634,-0.0072356800796320835
2635,-0.0072356800796320835
2636,-0.0072356800796320835
2637,-0.0072356800796320835
2638,-0.0072356800796320835
2639,-0.0072356800796320835
2640,-0.0072356800796320835
2641,-0.0072356800796320835
2642,-0.02083728740565197
2643,-0.03525383727027957
2644,-0.04967038713491434
2645,-0.06408693699954195
2646,-0.07850348686417774
2647,-0.0793472769262833
2648,-0.0793472769262833
2649,-0.0793472769262833
2650,-0.0793472769262833
2651,-0.0793472769262833
2652,-0.0793472769262833
2653,-0.0793472769262833
2654,-0.0793472769262833
2655,-0.0793472769262833
2656,-0.0793472769262833
2657,-0.0793472769262833
2658,-0.0793472769262833
2659,-0.0793472769262833
2660,-0.0793472769262833
2661,-0.0793472769262833
2662,-0.09283349415833027
2663,-0.10725004402296709
2664,-0.12166659388759571
2665,-0.13608314375223357
2666,-0.1504996936168622
2667,-0.1514588737729345
2668,-0.1514588737729345
2669,-0.1514588737729345
2670,-0.1514588737729345
2671,-0.1514588737729345
2672,-0.16488739595800014
2673,-0.17930394582263595
2674,-0.19372049568726354
2675,-0.2081370455518983
2676,-0.22255359541652592
2677,-0.2235704706195857
2678,-0.2235704706195857
2679,-0.2235704706195857
2680,-0.2235704706195857
2681,-0.2235704706195857
2682,-0.2235704706195857
2683,-0.2235704706195857
2684,-0.2235704706195857
2685,-0.2235704706195857
2686,-0.2235704706195857
2687,-0.2235704706195857
2688,-0.2235704706195857
2689,-0.2235704706195857
2690,-0.2235704706195857
2691,-0.2235704706195857
2692,-0.23688360271068665
2693,-0.25130015257532345
2694,-0.2657167024399531
2695,-0.2801332523045899
2696,-0.29454980216921856
2697,-0.29568206746623693
2698,-0.29568206746623693
2699,-0.29568206746623693
2700,-0.29568206746623693
2701,-0.29568206746623693
2702,-0.2824266304221173
2703,-0.2680100805574815
2704,-0.2535935306928539
2705,-0.23917698082821812
2706,-0.2247604309635905
2707,-0.19711729157832167
2708,-0.1682841918490634
2709,-0.13945109211978976
2710,-0.11061799239053148
2711,-0.08178489266125681
2712,-0.0793472769262833
2713,-0.0793472769262833
2714,-0.0793472769262833
2715,-0.0793472769262833
2716,-0.0793472769262833
2717,-0.0793472769262833
2718,-0.0793472769262833
2719,-0.0793472769262833
2720,-0.0793472769262833
2721,-0.0793472769262833
2722,-0.0793472769262833
2723,-0.0793472769262833
2724,-0.0793472769262833
2725,-0.0793472769262833
2726,-0.0793472769262833
2727,-0.0793472769262833
2728,-0.0793472769262833
2729,-0.0793472769262833
2730,-0.0793472769262833
2731,-0.0793472769262833
2732,-0.0793472769262833
2733,-0.0793472769262833
2734,-0.0793472769262833
2735,-0.0793472769262833
2736,-0.0793472769262833
2737,-0.0793472769262833
2738,-0.0793472769262833
2739,-0.0793472769262833
2740,-0.0793472769262833
2741,-0.0793472769262833
2742,-0.0793472769262833
2743,-0.0793472769262833
2744,-0.0793472769262833
2745,-0.0793472769262833
2746,-0.0793472769262833
2747,-0.05335565826088528
2748,-0.024522558531611637
2749,0.004310541197646636
2750,0.033143640926921306
2751,0.06197674065617958
2752,0.051908954957803094
2753,0.037492405093175495
2754,0.023075855228540724
2755,0.008659305363913126
2756,-0.005757244500722671
2757,-0.02017379436535027
2758,-0.03459034422998607
2759,-0.049006894094613666
2760,-0.06342344395924844
2761,-0.07783999382387603
2762,-0.09225654368851285
2763,-0.10667309355314251
2764,-0.12108964341777934
2765,-0.13550619328240898
2766,-0.1499227431470458
2767,-0.1385784545341956
2768,-0.12416190466955979
2769,-0.1097453548049322
2770,-0.09532880494029743
2771,-0.08091225507566982
2772,-0.0793472769262833
2773,-0.0793472769262833
2774,-0.0793472769262833
2775,-0.0793472769262833
2776,-0.0793472769262833
2777,-0.09217000111804291
2778,-0.1065865509826787
2779,-0.12100310084730631
2780,-0.1354196507119411
2781,-0.14983620057656868
2782,-0.1386649971046645
2783,-0.12424844724003692
2784,-0.10983189737540111
2785,-0.09541534751077352
2786,-0.08099879764613875
2787,-0.06658224778150909
2788,-0.052165697916872276
2789,-0.03774914805224365
2790,-0.023332598187605802
2791,-0.008916048322977179
2792,-0.0072356800796320835
2793,-0.0072356800796320835
2794,-0.0072356800796320835
2795,-0.0072356800796320835
2796,-0.0072356800796320835
2797,-0.0072356800796320835
2798,-0.0072356800796320835
2799,-0.0072356800796320835
2800,-0.0072356800796320835
2801,-0.0072356800796320835
2802,-0.019914166653937356
2803,-0.03433071651856598
2804,-0.0487472663832028
2805,-0.06316381624783245
2806,-0.07758036611246927
2807,-0.0793472769262833
2808,-0.0793472769262833
2809,-0.0793472769262833
2810,-0.0793472769262833
2811,-0.0793472769262833
2812,-0.0793472769262833
2813,-0.0793472769262833
2814,-0.0793472769262833
2815,-0.0793472769262833
2816,-0.0793472769262833
2817,-0.05416338891862699
2818,-0.025330289189368714
2819,0.0035028105399049297
2820,0.0323359102691632
2821,0.06116900999843787
2822,0.07743901324735558
2823,0.09185556311199138
2824,0.10627211297661898
2825,0.12068866284125478
2826,0.13510521270588238
2827,0.1495217625705192
2828,0.1639383124351478
2829,0.17835486229978567
2830,0.1927714121644143
2831,0.20718796202905113
2832,0.22160451189367872
2833,0.2360210617583145
2834,0.2504376116229421
2835,0.2648541614875779
2836,0.2792707113522055
2837,0.3061638151267088
2838,0.33499691485596406
2839,0.3638300145852346
2840,0.3926631143144898
2841,0.4214962140437614
2842,0.45032931377301866
2843,0.4791624135022933
2844,0.5079955132315516
2845,0.5368286129608252
2846,0.5656617126900835
2847,0.5944948124193551
2848,0.6233279121486103
2849,0.6521610118778809
2850,0.6809941116071361
2851,0.7098272113364077
2852,0.71388028838688
2853,0.71388028838688
2854,0.71388028838688
2855,0.71388028838688
2856,0.71388028838688
2857,0.71388028838688
2858,0.71388028838688
2859,0.71388028838688
2860,0.71388028838688
2861,0.71388028838688
2862,0.7015479720944678
2863,0.687131422229833
2864,0.6727148723652054
2865,0.6582983225005696
2866,0.643881772635942
2867,0.6171617540023837
2868,0.5883286542731295
2869,0.5594955545438579
2870,0.5306624548146027
2871,0.5018293550853322
2872,0.48527087660150064
2873,0.4708543267368628
2874,0.4564377768722342
2875,0.44202122700759733
2876,0.4276046771429677
2877,0.41318812727833193
2878,0.39877157741370434
2879,0.38435502754906953
2880,0.36993847768444194
2881,0.3555219278198061
2882,0.32888845175673315
2883,0.30005535202747796
2884,0.2712222522982074
2885,0.2423891525689522
2886,0.21355605283968057
2887,0.18472295311042333
2888,0.15588985338114866
2889,0.1270567536518904
2890,0.09822365392261674
2891,0.06939055419335848
2892,0.04055745446408688
2893,0.011724354734831683
2894,-0.017108744994438888
2895,-0.045941844723694086
2896,-0.07477494445296567
2897,-0.0793472769262833
2898,-0.0793472769262833
2899,-0.0793472769262833
2900,-0.0793472769262833
2901,-0.0793472769262833
2902,-0.10355034913525697
2903,-0.13238344886451217
2904,-0.16121654859378273
2905,-0.19004964832303795
2906,-0.21888274805230953
2907,-0.2356431592005747
2908,-0.2500597090652105
2909,-0.2644762589298381
2910,-0.27889280879447387
2911,-0.2933093586591015
2912,-0.29568206746623693
2913,-0.29568206746623693
2914,-0.29568206746623693
2915,-0.29568206746623693
2916,-0.29568206746623693
2917,-0.29568206746623693
2918,-0.29568206746623693
2919,-0.29568206746623693
2920,-0.29568206746623693
2921,-0.29568206746623693
2922,-0.29568206746623693
2923,-0.29568206746623693
2924,-0.29568206746623693
2925,-0.29568206746623693
2926,-0.29568206746623693
2927,-0.3076393659532612
2928,-0.322055915817898
2929,-0.33647246568252764
2930,-0.3508890155471645
2931,-0.3653055654117931
2932,-0.3797221152764289
2933,-0.3941386651410565
2934,-0.4085552150056923
2935,-0.4229717648703199
2936,-0.4373883147349557
2937,-0.4399052611595393
2938,-0.4399052611595393
2939,-0.4399052611595393
2940,-0.4399052611595393
2941,-0.4399052611595393
2942,-0.428034505242984
2943,-0.41361795537835533
2944,-0.39920140551371747
2945,-0.3847848556490889
2946,-0.370368305784452
2947,-0.3677936643128881
2948,-0.3677936643128881
2949,-0.3677936643128881
2950,-0.3677936643128881
2951,-0.3677936643128881
2952,-0.3677936643128881
2953,-0.3677936643128881
2954,-0.3677936643128881
2955,-0.3677936643128881
2956,-0.3677936643128881
2957,-0.3560094509668027
2958,-0.34159290110216795
2959,-0.3271763512375403
2960,-0.3127598013729127
2961,-0.2983432515082769
2962,-0.29568206746623693
2963,-0.29568206746623693
2964,-0.29568206746623693
2965,-0.29568206746623693
2966,-0.29568206746623693
2967,-0.29568206746623693
2968,-0.29568206746623693
2969,-0.29568206746623693
2970,-0.29568206746623693
2971,-0.29568206746623693
2972,-0.2722867259150203
2973,-0.24345362618574973
2974,-0.21462052645649454
2975,-0.18578742672722398
2976,-0.15695432699796877
2977,-0.08144593426022356
2978,0.005053364927541006
2979,0.09155266411535476
2980,0.17805196330311934
2981,0.2645512624909331
2982,0.32777061022146114
2983,0.38543680968000943
2984,0.443103009138526
2985,0.5007692085970743
2986,0.5584354080555909
2987,0.5812682228987169
2988,0.5956847727633445
2989,0.6101013226279793
2990,0.6245178724926069
2991,0.6389344223572427
2992,0.6186041301769457
2993,0.5897710304476741
2994,0.5609379307184199
2995,0.5321048309891483
2996,0.5032717312598931
2997,0.4744386315306195
2998,0.4456055318013612
2999,0.4167724320720876
3000,0.3879393323428293
3001,0.3591062326135546
3002,0.33027313288429944
3003,0.3014400331550278
3004,0.27260693342577363
3005,0.24377383369650207
3006,0.21494073396724686
3007,0.18610763423797322
3008,0.15727453450871495
3009,0.1284414347794413
3010,0.09960833505018303
3011,0.07077523532090836
3012,0.03047524500397019
3013,-0.012774404589936174
3014,-0.05602405418381897
3015,-0.09927370377772533
3016,-0.14252335337160812
3017,-0.19721104602970785
3018,-0.2548772454882182
3019,-0.3125434449467604
3020,-0.3702096444052708
3021,-0.42787584386381294
3022,-0.4284960656188418
3023,-0.41407951575420493
3024,-0.39966296588957634
3025,-0.3852464160249385
3026,-0.37082986616030983
3027,-0.3677936643128881
3028,-0.3677936643128881
3029,-0.3677936643128881
3030,-0.3677936643128881
3031,-0.3677936643128881
3032,-0.3677936643128881
3033,-0.3677936643128881
3034,-0.3677936643128881
3035,-0.3677936643128881
3036,-0.3677936643128881
3037,-0.3677936643128881
3038,-0.3677936643128881
3039,-0.3677936643128881
3040,-0.3677936643128881
3041,-0.3677936643128881
3042,-0.3677936643128881
3043,-0.3677936643128881
3044,-0.3677936643128881
3045,-0.3677936643128881
3046,-0.3677936643128881
3047,-0.356528706389648
3048,-0.3421121565250132
3049,-0.3276956066603856
3050,-0.3132790567957498
3051,-0.2988625069311222
3052,-0.29568206746623693
3053,-0.29568206746623693
3054,-0.29568206746623693
3055,-0.29568206746623693
3056,-0.29568206746623693
3057,-0.29568206746623693
3058,-0.29568206746623693
3059,-0.29568206746623693
3060,-0.29568206746623693
3061,-0.29568206746623693
3062,-0.28450365211346573
3063,-0.2700871022488381
3064,-0.25567055238420333
3065,-0.24125400251957574
3066,-0.22683745265493993
3067,-0.2124209027903113
3068,-0.1980043529256745
3069,-0.18358780306104486
3070,-0.16917125319640802
3071,-0.15475470333177838
3072,-0.1514588737729345
3073,-0.1514588737729345
3074,-0.1514588737729345
3075,-0.1514588737729345
3076,-0.1514588737729345
3077,-0.1514588737729345
3078,-0.1514588737729345
3079,-0.1514588737729345
3080,-0.1514588737729345
3081,-0.1514588737729345
3082,-0.14039584851412185
3083,-0.12597929864949425
3084,-0.11156274878485949
3085,-0.0971461989202319
3086,-0.08272964905559609
3087,-0.0793472769262833
3088,-0.0793472769262833
3089,-0.0793472769262833
3090,-0.0793472769262833
3091,-0.0793472769262833
3092,-0.0793472769262833
3093,-0.0793472769262833
3094,-0.0793472769262833
3095,-0.0793472769262833
3096,-0.0793472769262833
3097,-0.0793472769262833
3098,-0.0793472769262833
3099,-0.0793472769262833
3100,-0.0793472769262833
3101,-0.0793472769262833
3102,-0.06839964176143741
3103,-0.05398309189680982
3104,-0.03956654203217402
3105,-0.025149992167547444
3106,-0.010733442302911646
3107,-0.0072356800796320835
3108,-0.0072356800796320835
3109,-0.0072356800796320835
3110,-0.0072356800796320835
3111,-0.0072356800796320835
3112,-0.0072356800796320835
3113,-0.0072356800796320835
3114,-0.0072356800796320835
3115,-0.0072356800796320835
3116,-0.0072356800796320835
3117,0.003625412514736671
3118,0.01804196237936427
3119,0.032458512244000065
3120,0.046875062108627664
3121,0.06129161197326244
3122,0.07570816183789209
3123,0.0901247117025289
3124,0.10454126156715754
3125,0.11895781143179537
3126,0.133374361296424
3127,0.15859430870844926
3128,0.18742740843770447
3129,0.21626050816697606
3130,0.24509360789623025
3131,0.2739267076255018
3132,0.28121070730697273
3133,0.28121070730697273
3134,0.28121070730697273
3135,0.28121070730697273
3136,0.28121070730697273
3137,0.28121070730697273
3138,0.28121070730697273
3139,0.28121070730697273
3140,0.28121070730697273
3141,0.28121070730697273
3142,0.28121070730697273
3143,0.28121070730697273
3144,0.28121070730697273
3145,0.28121070730697273
3146,0.28121070730697273
3147,0.28121070730697273
3148,0.28121070730697273
3149,0.28121070730697273
3150,0.28121070730697273
3151,0.28121070730697273
3152,0.28121070730697273
3153,0.28121070730697273
3154,0.28121070730697273
3155,0.28121070730697273
3156,0.28121070730697273
3157,0.28121070730697273
3158,0.28121070730697273
3159,0.28121070730697273
3160,0.28121070730697273
3161,0.28121070730697273
3162,0.28121070730697273
3163,0.28121070730697273
3164,0.28121070730697273
3165,0.28121070730697273
3166,0.28121070730697273
3167,0.28121070730697273
3168,0.28121070730697273
3169,0.28121070730697273
3170,0.28121070730697273
3171,0.28121070730697273
3172,0.29175447714294006
3173,0.30617102700757487
3174,0.32058757687220246
3175,0.33500412673683827
3176,0.34942067660146586
3177,0.3533223041536239
3178,0.3533223041536239
3179,0.3533223041536239
3180,0.3533223041536239
3181,0.3533223041536239
3182,0.3533223041536239
3183,0.3533223041536239
3184,0.3533223041536239
3185,0.3533223041536239
3186,0.3533223041536239
3187,0.3637795314191152
3188,0.378196081283752
3189,0.39261263114838163
3190,0.4070291810130185
3191,0.42144573087764814
3192,0.43586228074228395
3193,0.45027883060691154
3194,0.4646953804715463
3195,0.4791119303361739
3196,0.4935284802008097
3197,0.49754549784692637
3198,0.49754549784692637
3199,0.49754549784692637
3200,0.49754549784692637
3201,0.49754549784692637
3202,0.49754549784692637
3203,0.49754549784692637
3204,0.49754549784692637
3205,0.49754549784692637
3206,0.49754549784692637
3207,0.49754549784692637
3208,0.49754549784692637
3209,0.49754549784692637
3210,0.49754549784692637
3211,0.49754549784692637
3212,0.49754549784692637
3213,0.49754549784692637
3214,0.49754549784692637
3215,0.49754549784692637
3216,0.49754549784692637
3217,0.49754549784692637
3218,0.49754549784692637
3219,0.49754549784692637
3220,0.49754549784692637
3221,0.49754549784692637
3222,0.49754549784692637
3223,0.49754549784692637
3224,0.49754549784692637
3225,0.49754549784692637
3226,0.49754549784692637
3227,0.49754549784692637
3228,0.49754549784692637
3229,0.49754549784692637
3230,0.49754549784692637
3231,0.49754549784692637
3232,0.4873478982928501
3233,0.47293134842822043
3234,0.4585147985635836
3235,0.444098248698954
3236,0.4296816988343171
3237,0.4152651489696895
3238,0.4008485991050537
3239,0.3864320492404261
3240,0.37201549937579037
3241,0.3575989495111638
3242,0.3330424951394289
3243,0.30420939541017067
3244,0.275376295680897
3245,0.24654319595163873
3246,0.21771009622236406
3247,0.20909911046032154
3248,0.20909911046032154
3249,0.20909911046032154
3250,0.20909911046032154
3251,0.20909911046032154
3252,0.19901690100020483
3253,0.18460035113557724
3254,0.17018380127094146
3255,0.15576725140631384
3256,0.14135070154167806
3257,0.13698751361367031
3258,0.13698751361367031
3259,0.13698751361367031
3260,0.13698751361367031
3261,0.13698751361367031
3262,0.13698751361367031
3263,0.13698751361367031
3264,0.13698751361367031
3265,0.13698751361367031
3266,0.13698751361367031
3267,0.12699184672403077
3268,0.11257529685940316
3269,0.09815874699476736
3270,0.08374219713013976
3271,0.06932564726550397
3272,0.06487591676701912
3273,0.06487591676701912
3274,0.06487591676701912
3275,0.06487591676701912
3276,0.06487591676701912
3277,0.06487591676701912
3278,0.06487591676701912
3279,0.06487591676701912
3280,0.06487591676701912
3281,0.06487591676701912
3282,0.06487591676701912
3283,0.06487591676701912
3284,0.06487591676701912
3285,0.06487591676701912
3286,0.06487591676701912
3287,0.06487591676701912
3288,0.06487591676701912
3289,0.06487591676701912
3290,0.06487591676701912
3291,0.06487591676701912
3292,0.07472734603920331
3293,0.08914389590383809
3294,0.10356044576846568
3295,0.11797699563310149
3296,0.13239354549772908
3297,0.13698751361367031
3298,0.13698751361367031
3299,0.13698751361367031
3300,0.13698751361367031
3301,0.13698751361367031
3302,0.13698751361367031
3303,0.13698751361367031
3304,0.13698751361367031
3305,0.13698751361367031
3306,0.13698751361367031
3307,0.12722262691195504
3308,0.11280607704732745
3309,0.09838952718269268
3310,0.08397297731806509
3311,0.06955642745342928
3312,0.06487591676701912
3313,0.06487591676701912
3314,0.06487591676701912
3315,0.06487591676701912
3316,0.06487591676701912
3317,0.06487591676701912
3318,0.06487591676701912
3319,0.06487591676701912
3320,0.06487591676701912
3321,0.06487591676701912
3322,0.07455426089825727
3323,0.08897081076289307
3324,0.10338736062752067
3325,0.11780391049215544
3326,0.13222046035678303
3327,0.13698751361367031
3328,0.13698751361367031
3329,0.13698751361367031
3330,0.13698751361367031
3331,0.13698751361367031
3332,0.13698751361367031
3333,0.13698751361367031
3334,0.13698751361367031
3335,0.13698751361367031
3336,0.13698751361367031
3337,0.13698751361367031
3338,0.13698751361367031
3339,0.13698751361367031
3340,0.13698751361367031
3341,0.13698751361367031
3342,0.13698751361367031
3343,0.13698751361367031
3344,0.13698751361367031
3345,0.13698751361367031
3346,0.13698751361367031
3347,0.13698751361367031
3348,0.13698751361367031
3349,0.13698751361367031
3350,0.13698751361367031
3351,0.13698751361367031
3352,0.13698751361367031
3353,0.13698751361367031
3354,0.13698751361367031
3355,0.13698751361367031
3356,0.13698751361367031
3357,0.13698751361367031
3358,0.13698751361367031
3359,0.13698751361367031
3360,0.13698751361367031
3361,0.13698751361367031
3362,0.14643507755698315
3363,0.16085162742161074
3364,0.17526817728624655
3365,0.18968472715087414
3366,0.20410127701550995
3367,0.21851782688013857
3368,0.23293437674477538
3369,0.24735092660940403
3370,0.26176747647404186
3371,0.2761840263386705
3372,0.2718208384106392
3373,0.2574042885460116
3374,0.2429877386813758
3375,0.2285711888167482
3376,0.2141546389521124
3377,0.20909911046032154
3378,0.20909911046032154
3379,0.20909911046032154
3380,0.20909911046032154
3381,0.20909911046032154
3382,0.20909911046032154
3383,0.20909911046032154
3384,0.20909911046032154
3385,0.20909911046032154
3386,0.20909911046032154
3387,0.20909911046032154
3388,0.20909911046032154
3389,0.20909911046032154
3390,0.20909911046032154
3391,0.20909911046032154
3392,0.20909911046032154
3393,0.20909911046032154
3394,0.20909911046032154
3395,0.20909911046032154
3396,0.20909911046032154
3397,0.20909911046032154
3398,0.20909911046032154
3399,0.20909911046032154
3400,0.20909911046032154
3401,0.20909911046032154
3402,0.199882326704933
3403,0.18546577684030643
3404,0.17104922697567063
3405,0.15663267711104303
3406,0.14221612724640723
3407,0.13698751361367031
3408,0.13698751361367031
3409,0.13698751361367031
3410,0.13698751361367031
3411,0.13698751361367031
3412,0.1461466023220724
3413,0.16056315218670103
3414,0.17497970205133068
3415,0.18939625191596748
3416,0.20381280178059713
3417,0.22735959283014434
3418,0.2561926925593985
3419,0.28502579228867014
3420,0.31385889201792533
3421,0.3426919917471959
3422,0.3624236978150385
3423,0.37684024767967533
3424,0.39125679754430503
3425,0.40567334740894184
3426,0.4200898972735715
3427,0.4345064471382073
3428,0.4489229970028349
3429,0.46333954686746964
3430,0.47775609673209724
3431,0.49217264659673304
3432,0.49754549784692637
3433,0.49754549784692637
3434,0.49754549784692637
3435,0.49754549784692637
3436,0.49754549784692637
3437,0.506560348937872
3438,0.5209768988025016
3439,0.5353934486671384
3440,0.5498099985317672
3441,0.564226548396405
3442,0.5966151053959425
3443,0.639864754989849
3444,0.6831144045837317
3445,0.7263640541776382
3446,0.7696137037715209
3447,0.803906197321462
3448,0.8327392970507171
3449,0.8615723967799876
3450,0.8904054965092428
3451,0.9192385962385144
3452,0.9391433874473022
3453,0.95355993731194
3454,0.9679764871765686
3455,0.9823930370412054
3456,0.9968095869058351
3457,1.0023266757734848
3458,1.0023266757734848
3459,1.0023266757734848
3460,1.0023266757734848
3461,1.0023266757734848
3462,0.9934560622999965
3463,0.9790395124353608
3464,0.9646229625707331
3465,0.9502064127060974
3466,0.9357898628414697
3467,0.9125315470268333
3468,0.8836984472975751
3469,0.8548653475683013
3470,0.8260322478390432
3471,0.7971991481097684
3472,0.7771789668070223
3473,0.7627624169423864
3474,0.7483458670777589
3475,0.733929317213123
3476,0.7195127673484955
3477,0.6963121465808403
3478,0.6674790468515851
3479,0.6386459471223145
3480,0.6098128473930593
3481,0.5809797476637888
3482,0.543391424555008
3483,0.5001417749610975
3484,0.4568921253672096
3485,0.4136424757732981
3486,0.3703928261794112
3487,0.3358695524415428
3488,0.30703645271228763
3489,0.27820335298301707
3490,0.24937025325376186
3491,0.22053715352450667
3492,0.20040158212777728
3493,0.18598503226314866
3494,0.17156848239851183
3495,0.15715193253388218
3496,0.14273538266924538
3497,0.12831883280461673
3498,0.11390228293998196
3499,0.09948573307535437
3500,0.08506918321071857
3501,0.07065263334609097
3502,0.06487591676701912
3503,0.06487591676701912
3504,0.06487591676701912
3505,0.06487591676701912
3506,0.06487591676701912
3507,0.06487591676701912
3508,0.06487591676701912
3509,0.06487591676701912
3510,0.06487591676701912
3511,0.06487591676701912
3512,0.05629377852843446
3513,0.04187722866380686
3514,0.027460678799172085
3515,0.013044128934544486
3516,-0.0013724209300913115
3517,-0.0072356800796320835
3518,-0.0072356800796320835
3519,-0.0072356800796320835
3520,-0.0072356800796320835
3521,-0.0072356800796320835
3522,-0.0072356800796320835
3523,-0.0072356800796320835
3524,-0.0072356800796320835
3525,-0.0072356800796320835
3526,-0.0072356800796320835
3527,-0.01573127574773963
3528,-0.030147825612375428
3529,-0.044564375477002004
3530,-0.0589809253416378
3531,-0.0733974752062654
3532,-0.0793472769262833
3533,-0.0793472769262833
3534,-0.0793472769262833
3535,-0.0793472769262833
3536,-0.0793472769262833
3537,-0.0793472769262833
3538,-0.0793472769262833
3539,-0.0793472769262833
3540,-0.0793472769262833
3541,-0.0793472769262833
3542,-0.08775633002392191
3543,-0.1021728798885495
3544,-0.11658942975318531
3545,-0.13100597961781188
3546,-0.1454225294824477
3547,-0.1598390793470763
3548,-0.17425562921171311
3549,-0.18867217907634276
3550,-0.2030887289409796
3551,-0.21750527880560924
3552,-0.2235704706195857
3553,-0.2235704706195857
3554,-0.2235704706195857
3555,-0.2235704706195857
3556,-0.2235704706195857
3557,-0.2235704706195857
3558,-0.2235704706195857
3559,-0.2235704706195857
3560,-0.2235704706195857
3561,-0.2235704706195857
3562,-0.2235704706195857
3563,-0.2235704706195857
3564,-0.2235704706195857
3565,-0.2235704706195857
3566,-0.2235704706195857
3567,-0.21530565513940347
3568,-0.20088910527477588
3569,-0.18647255541014007
3570,-0.17205600554551248
3571,-0.1576394556808777
3572,-0.12675096990288032
3573,-0.08350132030897395
3574,-0.040251670715091156
3575,0.0029979788788152104
3576,0.046247628472698005
3577,0.10591151893299898
3578,0.17799426825614517
3579,0.2500770175793303
3580,0.3221597669024765
3581,0.39424251622566164
3582,0.4745035384585078
3583,0.5610028376463215
3584,0.6475021368340861
3585,0.7340014360218988
3586,0.8205007352096645
3587,0.8907011836250462
3588,0.9483673830835556
3589,1.0060335825420978
3590,1.0636997820006082
3591,1.1213659814591503
3592,1.1546704473295057
3593,1.1690869971941438
3594,1.1835035470587723
3595,1.19792009692341
3596,1.2123366467880388
3597,1.2105697359742023
3598,1.1961531861095747
3599,1.1817366362449389
3600,1.1673200863803113
3601,1.1529035365156755
3602,1.1223612210195681
3603,1.0791115714256565
3604,1.0358619218317686
3605,0.9926122722378572
3606,0.9493626226439703
3607,0.890044902465547
3608,0.817962153142409
3609,0.7458794038192321
3610,0.6737966544960942
3611,0.6017139051729161
3612,0.5216259680810191
3613,0.4351266688932064
3614,0.3486273697054408
3615,0.26212807051762804
3616,0.17562877132986246
3617,0.08115313189677312
3618,-0.01976271715563032
3619,-0.12067856620809013
3620,-0.22159441526049356
3621,-0.3225102643129534
3622,-0.3677936643128881
3623,-0.3677936643128881
3624,-0.3677936643128881
3625,-0.3677936643128881
3626,-0.3677936643128881
3627,-0.35987501911459696
3628,-0.34545846924996937
3629,-0.33104191938533456
3630,-0.31662536952070697
3631,-0.30220881965607116
3632,-0.29568206746623693
3633,-0.29568206746623693
3634,-0.29568206746623693
3635,-0.29568206746623693
3636,-0.29568206746623693
3637,-0.28782111731492505
3638,-0.2734045674502974
3639,-0.25898801758566264
3640,-0.24457146772103505
3641,-0.23015491785640746
3642,-0.21573836799177165
3643,-0.20132181812714406
3644,-0.18690526826250825
3645,-0.17248871839788169
3646,-0.15807216853324588
3647,-0.14365561866861726
3648,-0.12923906880398045
3649,-0.11482251893935079
3650,-0.10040596907471397
3651,-0.08598941921008535
3652,-0.0793472769262833
3653,-0.0793472769262833
3654,-0.0793472769262833
3655,-0.0793472769262833
3656,-0.0793472769262833
3657,-0.0870928369836202
3658,-0.10150938684825601
3659,-0.1159259367128836
3660,-0.1303424865775194
3661,-0.14475903644214597
3662,-0.1591755863067828
3663,-0.17359213617141142
3664,-0.18800868603604928
3665,-0.2024252359006779
3666,-0.21684178576531574
3667,-0.2235704706195857
3668,-0.2235704706195857
3669,-0.2235704706195857
3670,-0.2235704706195857
3671,-0.2235704706195857
3672,-0.21591145313271667
3673,-0.20149490326808805
3674,-0.1870783534034502
3675,-0.17266180353882157
3676,-0.15824525367418374
3677,-0.14382870380955615
3678,-0.12941215394492034
3679,-0.11499560408029273
3680,-0.10057905421565694
3681,-0.08616250435103037
3682,-0.07174595448639456
3683,-0.05732940462176697
3684,-0.04291285475713117
3685,-0.028496304892503575
3686,-0.014079755027868802
3687,-0.0072356800796320835
3688,-0.0072356800796320835
3689,-0.0072356800796320835
3690,-0.0072356800796320835
3691,-0.0072356800796320835
3692,-0.0072356800796320835
3693,-0.0072356800796320835
3694,-0.0072356800796320835
3695,-0.0072356800796320835
3696,-0.0072356800796320835
3697,-0.0072356800796320835
3698,-0.0072356800796320835
3699,-0.0072356800796320835
3700,-0.0072356800796320835
3701,-0.0072356800796320835
3702,0.00025025226629089923
3703,0.014666802130920548
3704,0.02908335199555737
3705,0.04349990186018702
3706,0.05791645172482384
3707,0.06487591676701912
3708,0.06487591676701912
3709,0.06487591676701912
3710,0.06487591676701912
3711,0.06487591676701912
3712,0.06487591676701912
3713,0.06487591676701912
3714,0.06487591676701912
3715,0.06487591676701912
3716,0.06487591676701912
3717,0.06487591676701912
3718,0.06487591676701912
3719,0.06487591676701912
3720,0.06487591676701912
3721,0.06487591676701912
3722,0.07224645901897535
3723,0.08666300888361012
3724,0.10107955874823772
3725,0.11549610861287352
3726,0.1299126584775011
3727,0.14432920834213794
3728,0.15874575820676656
3729,0.17316230807140337
3730,0.18757885793603302
3731,0.20199540780066985
3732,0.20909911046032154
3733,0.20909911046032154
3734,0.20909911046032154
3735,0.20909911046032154
3736,0.20909911046032154
3737,0.20909911046032154
3738,0.20909911046032154
3739,0.20909911046032154
3740,0.20909911046032154
3741,0.20909911046032154
3742,0.20909911046032154
3743,0.20909911046032154
3744,0.20909911046032154
3745,0.20909911046032154
3746,0.20909911046032154
3747,0.20909911046032154
3748,0.20909911046032154
3749,0.20909911046032154
3750,0.20909911046032154
3751,0.20909911046032154
3752,0.20909911046032154
3753,0.20909911046032154
3754,0.20909911046032154
3755,0.20909911046032154
3756,0.20909911046032154
3757,0.20909911046032154
3758,0.20909911046032154
3759,0.20909911046032154
3760,0.20909911046032154
3761,0.20909911046032154
3762,0.21623887252435242
3763,0.23065542238898823
3764,0.24507197225361582
3765,0.2594885221182506
3766,0.2739050719828782
3767,0.288321621847514
3768,0.30273817171214157
3769,0.3171547215767774
3770,0.33157127144140497
3771,0.3459878213060398
3772,0.36040437117066837
3773,0.37482092103530523
3774,0.3892374708999349
3775,0.4036540207645717
3776,0.41807057062920133
3777,0.42543390100027517
3778,0.42543390100027517
3779,0.42543390100027517
3780,0.42543390100027517
3781,0.42543390100027517
3782,0.42543390100027517
3783,0.42543390100027517
3784,0.42543390100027517
3785,0.42543390100027517
3786,0.42543390100027517
3787,0.42543390100027517
3788,0.42543390100027517
3789,0.42543390100027517
3790,0.42543390100027517
3791,0.42543390100027517
3792,0.43240057792336
3793,0.4468171277879876
3794,0.4612336776526234
3795,0.475650227517251
3796,0.4900667773818868
3797,0.5044833272465143
3798,0.5188998771111523
3799,0.5333164269757809
3800,0.5477329768404177
3801,0.5621495267050474
3802,0.5696570946935776
3803,0.5696570946935776
3804,0.5696570946935776
3805,0.5696570946935776
3806,0.5696570946935776
3807,0.5696570946935776
3808,0.5696570946935776
3809,0.5696570946935776
3810,0.5696570946935776
3811,0.5696570946935776
3812,0.5696570946935776
3813,0.5696570946935776
3814,0.5696570946935776
3815,0.5696570946935776
3816,0.5696570946935776
3817,0.576479533999207
3818,0.5908960838638418
3819,0.6053126337284694
3820,0.6197291835931052
3821,0.6341457334577328
3822,0.6485622833223686
3823,0.6629788331869951
3824,0.6773953830516309
3825,0.6918119329162585
3826,0.7062284827808943
3827,0.707115544128238
3828,0.6926989942636002
3829,0.6782824443989715
3830,0.6638658945343336
3831,0.649449344669705
3832,0.6417686915402288
3833,0.6417686915402288
3834,0.6417686915402288
3835,0.6417686915402288
3836,0.6417686915402288
3837,0.6350616423285661
3838,0.6206450924639282
3839,0.6062285425992996
3840,0.5918119927346617
3841,0.5773954428700331
3842,0.556300691317216
3843,0.5274675915879609
3844,0.49863449185869024
3845,0.46980139212943506
3846,0.4409682924001635
3847,0.41213519267090826
3848,0.3833020929416377
3849,0.3544689932123825
3850,0.32563589348311195
3851,0.29680279375385676
3852,0.27459020066577794
3853,0.2601736508011493
3854,0.24575710093651246
3855,0.2313405510718828
3856,0.216924001207246
3857,0.20909911046032154
3858,0.20909911046032154
3859,0.20909911046032154
3860,0.20909911046032154
3861,0.20909911046032154
3862,0.20253629886610702
3863,0.18811974900147943
3864,0.17370319913684465
3865,0.15928664927221706
3866,0.14487009940758125
3867,0.13698751361367031
3868,0.13698751361367031
3869,0.13698751361367031
3870,0.13698751361367031
3871,0.13698751361367031
3872,0.13698751361367031
3873,0.13698751361367031
3874,0.13698751361367031
3875,0.13698751361367031
3876,0.13698751361367031
3877,0.13698751361367031
3878,0.13698751361367031
3879,0.13698751361367031
3880,0.13698751361367031
3881,0.13698751361367031
3882,0.13054009211342973
3883,0.11612354224879293
3884,0.10170699238416328
3885,0.08729044251952646
3886,0.07287389265489783
3887,0.06487591676701912
3888,0.06487591676701912
3889,0.06487591676701912
3890,0.06487591676701912
3891,0.06487591676701912
3892,0.06487591676701912
3893,0.06487591676701912
3894,0.06487591676701912
3895,0.06487591676701912
3896,0.06487591676701912
3897,0.06487591676701912
3898,0.06487591676701912
3899,0.06487591676701912
3900,0.06487591676701912
3901,0.06487591676701912
3902,0.06487591676701912
3903,0.06487591676701912
3904,0.06487591676701912
3905,0.06487591676701912
3906,0.06487591676701912
3907,0.06487591676701912
3908,0.06487591676701912
3909,0.06487591676701912
3910,0.06487591676701912
3911,0.06487591676701912
3912,0.06487591676701912
3913,0.06487591676701912
3914,0.06487591676701912
3915,0.06487591676701912
3916,0.06487591676701912
3917,0.06487591676701912
3918,0.06487591676701912
3919,0.06487591676701912
3920,0.06487591676701912
3921,0.06487591676701912
3922,0.07109255807933439
3923,0.08550910794397222
3924,0.09992565780860085
3925,0.11434220767323768
3926,0.1287587575378673
3927,0.13698751361367031
3928,0.13698751361367031
3929,0.13698751361367031
3930,0.13698751361367031
3931,0.13698751361367031
3932,0.13698751361367031
3933,0.13698751361367031
3934,0.13698751361367031
3935,0.13698751361367031
3936,0.13698751361367031
3937,0.13698751361367031
3938,0.13698751361367031
3939,0.13698751361367031
3940,0.13698751361367031
3941,0.13698751361367031
3942,0.13698751361367031
3943,0.13698751361367031
3944,0.13698751361367031
3945,0.13698751361367031
3946,0.13698751361367031
3947,0.13698751361367031
3948,0.13698751361367031
3949,0.13698751361367031
3950,0.13698751361367031
3951,0.13698751361367031
3952,0.13698751361367031
3953,0.13698751361367031
3954,0.13698751361367031
3955,0.13698751361367031
3956,0.13698751361367031
3957,0.13698751361367031
3958,0.13698751361367031
3959,0.13698751361367031
3960,0.13698751361367031
3961,0.13698751361367031
3962,0.13698751361367031
3963,0.13698751361367031
3964,0.13698751361367031
3965,0.13698751361367031
3966,0.13698751361367031
3967,0.13698751361367031
3968,0.13698751361367031
3969,0.13698751361367031
3970,0.13698751361367031
3971,0.13698751361367031
3972,0.13698751361367031
3973,0.13698751361367031
3974,0.13698751361367031
3975,0.13698751361367031
3976,0.13698751361367031
3977,0.13698751361367031
3978,0.13698751361367031
3979,0.13698751361367031
3980,0.13698751361367031
3981,0.13698751361367031
3982,0.13698751361367031
3983,0.13698751361367031
3984,0.13698751361367031
3985,0.13698751361367031
3986,0.13698751361367031
3987,0.1311458901067368
3988,0.11672934024210099
3989,0.1023127903774734
3990,0.08789624051283862
3991,0.07347969064821103
3992,0.06487591676701912
3993,0.06487591676701912
3994,0.06487591676701912
3995,0.06487591676701912
3996,0.06487591676701912
3997,0.06487591676701912
3998,0.06487591676701912
3999,0.06487591676701912
4000,0.06487591676701912
4001,0.06487591676701912
4002,0.06487591676701912
4003,0.06487591676701912
4004,0.06487591676701912
4005,0.06487591676701912
4006,0.06487591676701912
4007,0.06487591676701912
4008,0.06487591676701912
4009,0.06487591676701912
4010,0.06487591676701912
4011,0.06487591676701912
4012,0.05917853087753379
4013,0.044761981012906196
4014,0.030345431148270395
4015,0.015928881283642796
4016,0.0015123314190080242
4017,-0.0015671417136435678
4018,0.012849408150993254
4019,0.027265958015622902
4020,0.04168250788025973
4021,0.05609905774488937
4022,0.07615529845201585
4023,0.10498839818128641
4024,0.13382149791054163
4025,0.16265459763981321
4026,0.19148769736906737
4027,0.21470995377932975
4028,0.22912650364395734
4029,0.24354305350859315
4030,0.2579596033732207
4031,0.2723761532378565
4032,0.2867927031024841
4033,0.301209252967121
4034,0.3156258028317506
4035,0.33004235269638743
4036,0.3444589025610171
4037,0.3588754524256529
4038,0.3732920022902805
4039,0.3877085521549163
4040,0.4021251020195439
4041,0.4165416518841797
4042,0.42543390100027517
4043,0.42543390100027517
4044,0.42543390100027517
4045,0.42543390100027517
4046,0.42543390100027517
4047,0.4364248074503601
4048,0.46525790717961835
4049,0.494091006908893
4050,0.5229241066381514
4051,0.551757206367426
4052,0.5805903060966822
4053,0.6094234058259538
4054,0.638256505555209
4055,0.6670896052844796
4056,0.6959227050137348
4057,0.7193180465649431
4058,0.7337345964295707
4059,0.7481511462942055
4060,0.7625676961588331
4061,0.7769842460234689
4062,0.7805829745789659
4063,0.7661664247143279
4064,0.7517498748496994
4065,0.7373333249850615
4066,0.7229167751204328
4067,0.71388028838688
4068,0.71388028838688
4069,0.71388028838688
4070,0.71388028838688
4071,0.71388028838688
4072,0.7085290727792939
4073,0.6941125229146581
4074,0.6796959730500305
4075,0.6652794231853957
4076,0.6508628733207681
4077,0.6364463234561323
4078,0.6220297735915027
4079,0.6076132237268659
4080,0.5931966738622362
4081,0.5787801239975994
4082,0.5643635741329708
4083,0.549947024268335
4084,0.5355304744037074
4085,0.5211139245390726
4086,0.506697374674445
4087,0.48701615177269103
4088,0.45818305204343274
4089,0.42934995231415807
4090,0.40051685258489983
4091,0.37168375285562616
4092,0.3428506531263689
4093,0.31401755339709836
4094,0.2851844536678432
4095,0.25635135393857156
4096,0.2275182542093174
4097,0.1986851544800622
4098,0.1698520547507906
4099,0.14101895502153539
4100,0.11218585529226482
4101,0.08335275556300963
4102,0.05451965583373804
4103,0.025686556104479764
4104,-0.003146543624794904
4105,-0.03197964335405318
4106,-0.06081274308332785
4107,-0.08449655986943368
4108,-0.09891310973406947
4109,-0.11332965959869708
4110,-0.12774620946333287
4111,-0.14216275932795944
4112,-0.1514588737729345
4113,-0.1514588737729345
4114,-0.1514588737729345
4115,-0.1514588737729345
4116,-0.1514588737729345
4117,-0.14636728587677056
4118,-0.13195073601213375
4119,-0.11753418614750409
4120,-0.10311763628286727
4121,-0.08870108641823865
4122,-0.07428453655360182
4123,-0.05986798668897422
4124,-0.04545143682433843
4125,-0.031034886959710826
4126,-0.016618337095076055
4127,-0.012269572928815713
4128,-0.02668612279345151
4129,-0.04110267265807911
4130,-0.055519222522714906
4131,-0.0699357723873425
4132,-0.0843523222519783
4133,-0.09876887211660693
4134,-0.11318542198124477
4135,-0.1276019718458734
4136,-0.14201852171051124
4137,-0.1614112693773442
4138,-0.1902443691066148
4139,-0.21907746883586998
4140,-0.24791056856514157
4141,-0.27674366829439573
4142,-0.3006294177449526
4143,-0.31504596760958126
4144,-0.3294625174742191
4145,-0.3438790673388477
4146,-0.3582956172034856
4147,-0.3677936643128881
4148,-0.3677936643128881
4149,-0.3677936643128881
4150,-0.3677936643128881
4151,-0.3677936643128881
4152,-0.36290400908115267
4153,-0.3484874592165251
4154,-0.33407090935188927
4155,-0.3196543594872617
4156,-0.30523780962262587
4157,-0.29568206746623693
4158,-0.29568206746623693
4159,-0.29568206746623693
4160,-0.29568206746623693
4161,-0.29568206746623693
4162,-0.29568206746623693
4163,-0.29568206746623693
4164,-0.29568206746623693
4165,-0.29568206746623693
4166,-0.29568206746623693
4167,-0.29568206746623693
4168,-0.29568206746623693
4169,-0.29568206746623693
4170,-0.29568206746623693
4171,-0.29568206746623693
4172,-0.29568206746623693
4173,-0.29568206746623693
4174,-0.29568206746623693
4175,-0.29568206746623693
4176,-0.29568206746623693
4177,-0.28619123223767784
4178,-0.25735813250842265
4179,-0.22852503277915104
4180,-0.19969193304989585
4181,-0.17085883332062526
4182,-0.13730916350058786
4183,-0.0940595139066815
4184,-0.0508098643127987
4185,-0.0075602147188923345
4186,0.03568943487499046
4187,0.08831452960348402
4188,0.16039727892663022
4189,0.23248002824981534
4190,0.3045627775729615
4191,0.37664552689614667
4192,0.4394105261316839
4193,0.4826601757255903
4194,0.5259098253194731
4195,0.5691594749133795
4196,0.6124091245072623
4197,0.6371386640199155
4198,0.6227221141552858
4199,0.608305564290649
4200,0.5938890144260194
4201,0.5794724645613826
4202,0.5650559146967539
4203,0.5506393648321181
4204,0.5362228149674905
4205,0.5218062651028558
4206,0.5073897152382282
4207,0.49297316537359237
4208,0.4785566155089647
4209,0.46414006564432897
4210,0.4497235157797014
4211,0.43530696591506657
4212,0.4118034461507646
4213,0.3685537965568531
4214,0.3253041469629662
4215,0.28205449736905475
4216,0.2388048477751668
4217,0.19104056075490264
4218,0.13337436129639224
4219,0.07570816183785008
4220,0.0180419623793407
4221,-0.039624237079201464
4222,-0.10177622644056875
4223,-0.1738589757637467
4224,-0.24594172508688367
4225,-0.31802447441006165
4226,-0.3901072237331996
4227,-0.4443622035389076
4228,-0.4587787534035362
4229,-0.47319530326817305
4230,-0.4876118531328027
4231,-0.5020284029974394
4232,-0.5075887631503129
4233,-0.4931722132856771
4234,-0.4787556634210495
4235,-0.4643391135564137
4236,-0.4499225636917861
4237,-0.4355060138271514
4238,-0.4210894639625238
4239,-0.40667291409788797
4240,-0.3922563642332604
4241,-0.37783981436862457
4242,-0.363423264503997
4243,-0.3490067146393601
4244,-0.33459016477473047
4245,-0.32017361491009366
4246,-0.30575706504546507
4247,-0.29568206746623693
4248,-0.29568206746623693
4249,-0.29568206746623693
4250,-0.29568206746623693
4251,-0.29568206746623693
4252,-0.29136936270432506
4253,-0.27695281283969847
4254,-0.26253626297506266
4255,-0.24811971311043507
4256,-0.23370316324579926
4257,-0.2235704706195857
4258,-0.2235704706195857
4259,-0.2235704706195857
4260,-0.2235704706195857
4261,-0.2235704706195857
4262,-0.2235704706195857
4263,-0.2235704706195857
4264,-0.2235704706195857
4265,-0.2235704706195857
4266,-0.2235704706195857
4267,-0.2235704706195857
4268,-0.2235704706195857
4269,-0.2235704706195857
4270,-0.2235704706195857
4271,-0.2235704706195857
4272,-0.2235704706195857
4273,-0.2235704706195857
4274,-0.2235704706195857
4275,-0.2235704706195857
4276,-0.2235704706195857
4277,-0.2235704706195857
4278,-0.2235704706195857
4279,-0.2235704706195857
4280,-0.2235704706195857
4281,-0.2235704706195857
4282,-0.2235704706195857
4283,-0.2235704706195857
4284,-0.2235704706195857
4285,-0.2235704706195857
4286,-0.2235704706195857
4287,-0.2235704706195857
4288,-0.2235704706195857
4289,-0.2235704706195857
4290,-0.2235704706195857
4291,-0.2235704706195857
4292,-0.21948854604559914
4293,-0.20507199618097155
4294,-0.1906554463163368
4295,-0.17623889645170918
4296,-0.1618223465870734
4297,-0.1514588737729345
4298,-0.1514588737729345
4299,-0.1514588737729345
4300,-0.1514588737729345
4301,-0.1514588737729345
4302,-0.1514588737729345
4303,-0.1514588737729345
4304,-0.1514588737729345
4305,-0.1514588737729345
4306,-0.1514588737729345
4307,-0.14746349176942508
4308,-0.13304694190478927
4309,-0.11863039204016167
4310,-0.1042138421755269
4311,-0.08979729231089931
4312,-0.0793472769262833
4313,-0.0793472769262833
4314,-0.0793472769262833
4315,-0.0793472769262833
4316,-0.0793472769262833
4317,-0.07540958996975315
4318,-0.06099304010511735
4319,-0.04657649024048975
4320,-0.03215994037585498
4321,-0.017743390511227378
4322,-0.0033268406465915804
4323,0.011089709218038068
4324,0.025506259082666693
4325,0.03992280894730454
4326,0.054339358811933164
4327,0.06487591676701912
4328,0.06487591676701912
4329,0.06487591676701912
4330,0.06487591676701912
4331,0.06487591676701912
4332,0.06487591676701912
4333,0.06487591676701912
4334,0.06487591676701912
4335,0.06487591676701912
4336,0.06487591676701912
4337,0.06487591676701912
4338,0.06487591676701912
4339,0.06487591676701912
4340,0.06487591676701912
4341,0.06487591676701912
4342,0.06487591676701912
4343,0.06487591676701912
4344,0.06487591676701912
4345,0.06487591676701912
4346,0.06487591676701912
4347,0.06487591676701912
4348,0.06487591676701912
4349,0.06487591676701912
4350,0.06487591676701912
4351,0.06487591676701912
4352,0.06487591676701912
4353,0.06487591676701912
4354,0.06487591676701912
4355,0.06487591676701912
4356,0.06487591676701912
4357,0.06487591676701912
4358,0.06487591676701912
4359,0.06487591676701912
4360,0.06487591676701912
4361,0.06487591676701912
4362,0.06487591676701912
4363,0.06487591676701912
4364,0.06487591676701912
4365,0.06487591676701912
4366,0.06487591676701912
4367,0.06487591676701912
4368,0.06487591676701912
4369,0.06487591676701912
4370,0.06487591676701912
4371,0.06487591676701912
4372,0.06849628096514784
4373,0.08291283082978262
4374,0.09732938069441022
4375,0.11174593055904601
4376,0.12616248042367362
4377,0.14057903028830943
4378,0.15499558015293805
4379,0.16941213001757588
4380,0.1838286798822045
4381,0.19824522974684236
4382,0.20909911046032154
4383,0.20909911046032154
4384,0.20909911046032154
4385,0.20909911046032154
4386,0.20909911046032154
4387,0.21263293208798134
4388,0.22704948195260893
4389,0.24146603181724371
4390,0.2558825816818713
4391,0.2702991315465071
4392,0.28121070730697273
4393,0.28121070730697273
4394,0.28121070730697273
4395,0.28121070730697273
4396,0.28121070730697273
4397,0.28468683388765326
4398,0.29910338375228085
4399,0.31351993361691566
4400,0.32793648348154325
4401,0.34235303334617084
4402,0.3533223041536239
4403,0.3533223041536239
4404,0.3533223041536239
4405,0.3533223041536239
4406,0.3533223041536239
4407,0.3533223041536239
4408,0.3533223041536239
4409,0.3533223041536239
4410,0.3533223041536239
4411,0.3533223041536239
4412,0.3567118881638273
4413,0.37112843802845497
4414,0.3855449878930907
4415,0.3999615377577173
4416,0.4143780876223531
4417,0.4287946374869807
4418,0.4432111873516165
4419,0.4576277372162441
4420,0.47204428708087887
4421,0.48646083694550646
4422,0.49754549784692637
4423,0.49754549784692637
4424,0.49754549784692637
4425,0.49754549784692637
4426,0.49754549784692637
4427,0.49424245640720005
4428,0.4798259065425643
4429,0.4654093566779367
4430,0.4509928068133019
4431,0.4365762569486743
4432,0.42543390100027517
4433,0.42543390100027517
4434,0.42543390100027517
4435,0.42543390100027517
4436,0.42543390100027517
4437,0.4189432082147965
4438,0.39011010848552186
4439,0.36127700875626356
4440,0.33244390902698995
4441,0.30361080929773165
4442,0.2779942084377154
4443,0.2635776585730878
4444,0.24916110870845198
4445,0.2347445588438244
4446,0.2203280089791896
4447,0.205911459114561
4448,0.19149490924992416
4449,0.17707835938529554
4450,0.1626618095206577
4451,0.14824525965602908
4452,0.13698751361367031
4453,0.13698751361367031
4454,0.13698751361367031
4455,0.13698751361367031
4456,0.13698751361367031
4457,0.13385755731489007
4458,0.1194410074502543
4459,0.10502445758562669
4460,0.0906079077209909
4461,0.0761913578563633
4462,0.06487591676701912
4463,0.06487591676701912
4464,0.06487591676701912
4465,0.06487591676701912
4466,0.06487591676701912
4467,0.061803655515218166
4468,0.047387105650582365
4469,0.032970555785954765
4470,0.01855400592131897
4471,0.0041374560566913715
4472,-0.0072356800796320835
4473,-0.0072356800796320835
4474,-0.0072356800796320835
4475,-0.0072356800796320835
4476,-0.0072356800796320835
4477,-0.0072356800796320835
4478,-0.0072356800796320835
4479,-0.0072356800796320835
4480,-0.0072356800796320835
4481,-0.0072356800796320835
4482,-0.0072356800796320835
4483,-0.0072356800796320835
4484,-0.0072356800796320835
4485,-0.0072356800796320835
4486,-0.0072356800796320835
4487,-0.0072356800796320835
4488,-0.0072356800796320835
4489,-0.0072356800796320835
4490,-0.0072356800796320835
4491,-0.0072356800796320835
4492,-0.010163703713969467
4493,-0.024580253578606288
4494,-0.03899680344323594
4495,-0.05341335330787276
4496,-0.06782990317250241
4497,-0.0793472769262833
4498,-0.0793472769262833
4499,-0.0793472769262833
4500,-0.0793472769262833
4501,-0.0793472769262833
4502,-0.0793472769262833
4503,-0.0793472769262833
4504,-0.0793472769262833
4505,-0.0793472769262833
4506,-0.0793472769262833
4507,-0.0793472769262833
4508,-0.0793472769262833
4509,-0.0793472769262833
4510,-0.0793472769262833
4511,-0.0793472769262833
4512,-0.0793472769262833
4513,-0.0793472769262833
4514,-0.0793472769262833
4515,-0.0793472769262833
4516,-0.0793472769262833
4517,-0.0793472769262833
4518,-0.0793472769262833
4519,-0.0793472769262833
4520,-0.0793472769262833
4521,-0.0793472769262833
4522,-0.0793472769262833
4523,-0.0793472769262833
4524,-0.0793472769262833
4525,-0.0793472769262833
4526,-0.0793472769262833
4527,-0.0793472769262833
4528,-0.0793472769262833
4529,-0.0793472769262833
4530,-0.0793472769262833
4531,-0.0793472769262833
4532,-0.0793472769262833
4533,-0.0793472769262833
4534,-0.0793472769262833
4535,-0.0793472769262833
4536,-0.0793472769262833
4537,-0.07667888100335267
4538,-0.06226233113872507
4539,-0.047845781274089276
4540,-0.03342923140946168
4541,-0.019012681544826902
4542,-0.004596131680199305
4543,0.009820418184436491
4544,0.02423696804906409
4545,0.038653517913699885
4546,0.053070067778326464
4547,0.06487591676701912
4548,0.06487591676701912
4549,0.06487591676701912
4550,0.06487591676701912
4551,0.06487591676701912
4552,0.06229406341456562
4553,0.04787751354993802
4554,0.03346096368530223
4555,0.01904441382067463
4556,0.004627863956039857
4557,-0.0072356800796320835
4558,-0.0072356800796320835
4559,-0.0072356800796320835
4560,-0.0072356800796320835
4561,-0.0072356800796320835
4562,-0.0072356800796320835
4563,-0.0072356800796320835
4564,-0.0072356800796320835
4565,-0.0072356800796320835
4566,-0.0072356800796320835
4567,-0.0072356800796320835
4568,-0.0072356800796320835
4569,-0.0072356800796320835
4570,-0.0072356800796320835
4571,-0.0072356800796320835
4572,-0.004769216821144322
4573,0.009647333043484302
4574,0.02406388290812112
4575,0.038480432772750775
4576,0.052896982637387596
4577,0.06487591676701912
4578,0.06487591676701912
4579,0.06487591676701912
4580,0.06487591676701912
4581,0.06487591676701912
4582,0.06487591676701912
4583,0.06487591676701912
4584,0.06487591676701912
4585,0.06487591676701912
4586,0.06487591676701912
4587,0.06487591676701912
4588,0.06487591676701912
4589,0.06487591676701912
4590,0.06487591676701912
4591,0.06487591676701912
4592,0.06487591676701912
4593,0.06487591676701912
4594,0.06487591676701912
4595,0.06487591676701912
4596,0.06487591676701912
4597,0.06255369112598776
4598,0.04813714126135299
4599,0.03372059139672539
4600,0.019304041532089592
4601,0.004887491667461994
4602,-0.0072356800796320835
4603,-0.0072356800796320835
4604,-0.0072356800796320835
4605,-0.0072356800796320835
4606,-0.0072356800796320835
4607,-0.0072356800796320835
4608,-0.0072356800796320835
4609,-0.0072356800796320835
4610,-0.0072356800796320835
4611,-0.0072356800796320835
4612,-0.0072356800796320835
4613,-0.0072356800796320835
4614,-0.0072356800796320835
4615,-0.0072356800796320835
4616,-0.0072356800796320835
4617,-0.005028844532559287
4618,0.009387705332075487
4619,0.023804255196703084
4620,0.03822080506133888
4621,0.05263735492596648
4622,0.06487591676701912
4623,0.06487591676701912
4624,0.06487591676701912
4625,0.06487591676701912
4626,0.06487591676701912
4627,0.0627267762669338
4628,0.04831022640230415
4629,0.03389367653766733
4630,0.01947712667303871
4631,0.005060576808400863
4632,-0.0072356800796320835
4633,-0.0072356800796320835
4634,-0.0072356800796320835
4635,-0.0072356800796320835
4636,-0.0072356800796320835
4637,-0.005144234626526047
4638,0.009272315238101552
4639,0.02368886510273735
4640,0.03810541496736495
4641,0.05252196483199972
4642,0.06693851469662732
4643,0.08135506456126516
4644,0.09577161442589378
4645,0.11018816429053062
4646,0.12460471415516026
4647,0.1390212640197971
4648,0.15343781388442468
4649,0.1678543637490605
4650,0.18227091361368808
4651,0.19668746347832286
4652,0.21110401334295045
4653,0.22552056320758623
4654,0.23993711307221385
4655,0.25435366293684963
4656,0.2687702128014772
4657,0.28318676266611204
4658,0.2976033125307417
4659,0.3120198623953785
4660,0.32643641226000814
4661,0.34085296212464494
4662,0.3552695119892736
4663,0.3696860618539094
4664,0.384102611718537
4665,0.3985191615831728
4666,0.4129357114478004
4667,0.42735226131243514
4668,0.44176881117706274
4669,0.45618536104169854
4670,0.47060191090632614
4671,0.48501846077096195
4672,0.5013245234242517
4673,0.5301576231535263
4674,0.5589907228827846
4675,0.5878238226120582
4676,0.6166569223413165
4677,0.6417686915402288
4678,0.6417686915402288
4679,0.6417686915402288
4680,0.6417686915402288
4681,0.6417686915402288
4682,0.6417686915402288
4683,0.6417686915402288
4684,0.6417686915402288
4685,0.6417686915402288
4686,0.6417686915402288
4687,0.6417686915402288
4688,0.6417686915402288
4689,0.6417686915402288
4690,0.6417686915402288
4691,0.6417686915402288
4692,0.6382204461508205
4693,0.60938734642155
4694,0.5805542466922948
4695,0.5517211469630232
4696,0.522888047233768
4697,0.4958002226757114
4698,0.48138367281108274
4699,0.46696712294644593
4700,0.4525505730818163
4701,0.4381340232171795
4702,0.42028461805710016
4703,0.3770349684632184
4704,0.333785318869311
4705,0.29053566927542923
4706,0.24728601968152286
4707,0.20741153033609402
4708,0.19299498047145927
4709,0.17857843060683165
4710,0.16416188074219587
4711,0.14974533087756828
4712,0.13367004841219463
4713,0.10483694868293635
4714,0.0760038489536627
4715,0.047170749224404424
4716,0.018337649495129758
4717,-0.010495450234128515
4718,-0.03932854996339909
4719,-0.06816164969265429
4720,-0.09699474942192485
4721,-0.12582784915118006
4722,-0.15305991132669308
4723,-0.16747646119132067
4724,-0.18189301105595543
4725,-0.19630956092058305
4726,-0.21072611078521883
4727,-0.22199828058932497
4728,-0.20758173072468813
4729,-0.1931651808600585
4730,-0.17874863099542168
4731,-0.16433208113079203
4732,-0.1545455587864931
4733,-0.18337865851574725
4734,-0.21221175824501884
4735,-0.24104485797427405
4736,-0.2698779577035446
4737,-0.29719656244951836
4738,-0.31161311231415517
4739,-0.3260296621787848
4740,-0.3404462120434216
4741,-0.3548627619080513
4742,-0.3677936643128881
4743,-0.3677936643128881
4744,-0.3677936643128881
4745,-0.3677936643128881
4746,-0.3677936643128881
4747,-0.3677936643128881
4748,-0.3677936643128881
4749,-0.3677936643128881
4750,-0.3677936643128881
4751,-0.3677936643128881
4752,-0.3677936643128881
4753,-0.3677936643128881
4754,-0.3677936643128881
4755,-0.3677936643128881
4756,-0.3677936643128881
4757,-0.3677936643128881
4758,-0.3677936643128881
4759,-0.3677936643128881
4760,-0.3677936643128881
4761,-0.3677936643128881
4762,-0.3677936643128881
4763,-0.3677936643128881
4764,-0.3677936643128881
4765,-0.3677936643128881
4766,-0.3677936643128881
4767,-0.3677936643128881
4768,-0.3677936643128881
4769,-0.3677936643128881
4770,-0.3677936643128881
4771,-0.3677936643128881
4772,-0.3677936643128881
4773,-0.3677936643128881
4774,-0.3677936643128881
4775,-0.3677936643128881
4776,-0.3677936643128881
4777,-0.36907737910824423
4778,-0.38349392897288004
4779,-0.39791047883750763
4780,-0.4123270287021352
4781,-0.42674357856677103
4782,-0.43865039388768
4783,-0.42423384402304315
4784,-0.40981729415841456
4785,-0.3954007442937767
4786,-0.3809841944291481
4787,-0.36656764456451124
4788,-0.35215109469988365
4789,-0.33773454483524784
4790,-0.32331799497062025
4791,-0.30890144510598444
4792,-0.29448489524135685
4793,-0.28006834537672004
4794,-0.26565179551209145
4795,-0.2512352456474536
4796,-0.23681869578282494
4797,-0.2188971718139944
4798,-0.161230972355484
4799,-0.10356477289694184
4800,-0.04589857343843144
4801,0.011767626020110722
4802,0.07171277983442058
4803,0.15821207902223433
4804,0.24471137820999891
4805,0.3312106773978127
4806,0.41770997658557724
4807,0.5064305350822133
4808,0.6217629339992453
4809,0.7370953329163429
4810,0.8524277318333761
4811,0.9677601307504726
4812,1.0798471832747414
4813,1.1519299325979193
4814,1.2240126819210562
4815,1.2960954312442343
4816,1.3681781805673712
4817,1.4360491914608238
4818,1.4504657413254514
4819,1.4648822911900863
4820,1.4792988410547139
4821,1.4937153909193497
4822,1.5040355924482411
4823,1.4607859428543297
4824,1.417536293260443
4825,1.3742866436665313
4826,1.3310369940726445
4827,1.2818159071160198
4828,1.1520669583343723
4829,1.0223180095526532
4830,0.8925690607710048
4831,0.7628201119892858
4832,0.634037555244592
4833,0.5187051563275088
4834,0.403372757410488
4835,0.28804035849340365
4836,0.1727079595763839
4837,0.057375560659298545
4838,-0.05795683825773352
4839,-0.17328923717483116
4840,-0.28862163609186425
4841,-0.4039540350089609
4842,-0.5120168580061906
4843,-0.5120168580061906
4844,-0.5120168580061906
4845,-0.5120168580061906
4846,-0.5120168580061906
4847,-0.5111370085397048
4848,-0.49672045867507714
4849,-0.48230390881044133
4850,-0.46788735894581474
4851,-0.453470809081179
4852,-0.4390542592165514
4853,-0.4246377093519145
4854,-0.4102211594872849
4855,-0.3958046096226563
4856,-0.3813880597580184
4857,-0.3677936643128881
4858,-0.3677936643128881
4859,-0.3677936643128881
4860,-0.3677936643128881
4861,-0.3677936643128881
4862,-0.3677936643128881
